*TYPE		=  Raw
*CLASS		=  ASCII CLASS
*SAMPLE		=  Mars Analogue
*COMMENT	=   
*FNAME		=  mars_analogue_sample_Theta_2-Theta.asc
*DATE		=  04-Mar-26 11:23

*GROUP_COUNT	=  1
*GONIO		=  MiniFlex 300/600 +, 150
*ATTACHMENT	=  ASC-6
*ASC		=  0, 0, 0.000000, 0.000000
*FILTER		=  None
*C_MONOCHRO	=  None, 0.000000
*SLIT_NAME	=  0, IHS
*SLIT_NAME	=  1, DS
*SLIT_NAME	=  2, SS
*SLIT_NAME	=  3, RS
*COUNTER	=  SC-70, 0
*POS_FORMAT	=  0
*SCAN_AXIS	=  2theta/theta
*MEAS_MODE	=  Continuous Scanning
*TARGET		=  29
*XRAY_CHAR	=  K-ALPHA
*WAVE_LENGTH1	=  1.54059
*WAVE_LENGTH2	=  1.54441
*THICKNESS	=  0, 0.000000
*MU		=  0, 0.000000
*SCAN_MODE	=  2theta/theta
*SPEED_DIM	=  sec./step
*XUNIT		=  deg.
*YUNIT		=  counts
*SCALE_MODE	=  1
*REP_COUNT	=  0
*SE_COUNT	=  0
*STD_MATERIAL	=  Unknown, Unknown, 0.000000, 0.000000, 0.000000, 0.000000, 0.000000, 0.000000
*LATT_CONS	=  0, Unknown, Unknown, 0.000000, 0.000000, 0.000000, 0.000000, 0.000000, 0.000000
*SEC_COUNT	=  1
*TSPEC_SIZE	=  0
*EXTRA_SIZE	=  0
*MEMO		=   

*BEGIN
*GROUP		=  0
*START		=  2.01
*STOP		=  69.99
*STEP		=  0.02
*OFFSET		=  0.000000
*SPEED		=  0.6
*SLIT_SPEC	=  0, 10.0mm, 10, 0.000000
*SLIT_SPEC	=  1, 1.250deg, 1.25, 0.000000
*SLIT_SPEC	=  2, 13.0mm(Open), 13, 0.000000
*SLIT_SPEC	=  3, 13.0mm, 13, 0.000000
*KV		=  40
*MA		=  15
*LOW		=  0.000000
*HIGH		=  0.000000
*CTEMPER	=  0, 0.000000
*CTEMPER	=  1, 0.000000
*CTEMPER	=  2, 0.000000
*PAREX		=  0, 0.000000
*PAREX		=  1, 0.000000
*PAREX		=  2, 0.000000
*PAREX		=  3, 0.000000
*PAREX		=  4, 0.000000
*PAREX		=  5, 0.000000
*PAREX		=  6, 0.000000
*PAREX		=  7, 0.000000
*PAREX		=  8, 0.000000
*PAREX		=  9, 0.000000
*PAREX		=  10, 0.000000
*PAREX		=  11, 0.000000
*PAREX		=  12, 0.000000
*PAREX		=  13, 0.000000
*PAREX		=  14, 0.000000
*PAREX		=  15, 0.000000
*FULL_SCALE	=  1186.8
*INDEX		=  0, 0, 0
*COUNT		=  3400
73, 64, 74, 68
65, 72, 64, 61
68, 67, 63, 61
63, 60, 68, 68
63, 63, 66, 64
66, 63, 60, 59
67, 58, 51, 52
50, 48, 52, 58
59, 53, 53, 52
55, 55, 43, 37
42, 44, 51, 44
45, 50, 53, 47
42, 53, 49, 42
37, 36, 37, 44
38, 35, 35, 38
35, 35, 41, 42
38, 40, 41, 45
43, 35, 36, 37
46, 41, 40, 47
42, 43, 45, 37
37, 41, 43, 52
46, 37, 33, 34
44, 48, 44, 45
41, 42, 44, 42
44, 36, 50, 53
53, 53, 49, 53
48, 48, 50, 48
43, 40, 46, 51
49, 52, 50, 45
45, 48, 43, 46
49, 45, 42, 53
52, 52, 54, 49
46, 53, 56, 56
64, 58, 51, 48
45, 58, 59, 62
60, 46, 51, 60
60, 50, 45, 54
51, 50, 61, 62
64, 62, 65, 66
58, 54, 55, 64
67, 71, 72, 68
69, 64, 59, 61
70, 69, 65, 63
66, 64, 64, 69
68, 77, 81, 71
76, 76, 71, 79
83, 73, 72, 80
78, 76, 77, 84
85, 77, 88, 98
87, 85, 91, 87
93, 88, 86, 90
83, 75, 72, 89
94, 80, 84, 92
99, 98, 84, 87
91, 94, 88, 80
87, 95, 97, 92
92, 97, 87, 80
83, 80, 82, 91
90, 81, 76, 79
88, 86, 77, 70
74, 73, 71, 78
75, 76, 81, 89
86, 66, 71, 81
75, 78, 83, 79
85, 96, 83, 66
72, 79, 72, 72
83, 84, 69, 66
71, 81, 82, 76
78, 85, 88, 86
79, 76, 81, 82
92, 93, 83, 82
88, 90, 82, 80
80, 82, 84, 81
90, 88, 84, 87
77, 80, 93, 88
85, 83, 90, 90
79, 80, 87, 91
90, 94, 98, 91
83, 87, 96, 103
90, 94, 94, 87
81, 82, 92, 92
83, 88, 94, 102
106, 96, 95, 92
90, 92, 94, 97
89, 95, 97, 97
109, 104, 84, 84
91, 91, 98, 102
96, 92, 94, 89
83, 99, 100, 86
89, 89, 91, 91
93, 98, 102, 107
119, 107, 103, 110
99, 95, 102, 100
106, 112, 120, 124
128, 131, 123, 123
119, 116, 127, 112
103, 102, 105, 106
112, 120, 121, 123
117, 121, 119, 115
114, 118, 118, 117
115, 121, 129, 121
119, 121, 115, 118
122, 124, 133, 127
125, 121, 121, 122
117, 114, 114, 124
126, 114, 123, 127
114, 119, 112, 128
136, 132, 136, 138
137, 118, 117, 119
116, 127, 137, 123
118, 123, 128, 127
120, 117, 117, 114
113, 132, 121, 121
116, 106, 107, 127
118, 125, 130, 125
136, 136, 124, 131
117, 122, 120, 118
112, 124, 130, 131
136, 134, 130, 128
130, 127, 125, 134
140, 132, 118, 124
129, 117, 132, 139
133, 149, 147, 134
134, 142, 133, 131
132, 130, 132, 130
150, 151, 140, 136
136, 131, 141, 132
144, 143, 144, 142
140, 128, 129, 142
148, 139, 136, 124
122, 139, 132, 150
165, 132, 152, 147
146, 137, 145, 156
157, 145, 128, 153
156, 147, 136, 145
144, 150, 158, 139
138, 148, 155, 134
127, 140, 132, 148
144, 138, 141, 140
149, 156, 153, 142
137, 137, 150, 143
140, 136, 124, 127
143, 135, 147, 144
163, 153, 150, 152
162, 146, 144, 139
158, 161, 134, 144
137, 139, 131, 143
155, 140, 129, 158
151, 145, 163, 155
143, 142, 148, 134
141, 144, 131, 142
139, 166, 163, 179
175, 164, 159, 171
154, 153, 145, 161
152, 164, 165, 142
164, 167, 147, 153
171, 168, 151, 161
154, 159, 166, 157
162, 171, 182, 172
150, 166, 170, 161
163, 168, 170, 159
156, 170, 181, 153
135, 146, 160, 149
174, 147, 154, 155
175, 176, 151, 158
165, 185, 181, 190
170, 153, 166, 140
139, 154, 140, 138
170, 188, 152, 160
163, 148, 162, 147
169, 164, 158, 165
152, 180, 171, 172
159, 155, 175, 165
151, 166, 169, 176
172, 197, 169, 168
184, 177, 166, 179
185, 179, 162, 191
194, 166, 165, 188
163, 195, 209, 171
165, 165, 181, 163
198, 155, 168, 166
188, 162, 171, 161
188, 170, 151, 178
185, 175, 177, 179
165, 190, 183, 168
200, 190, 166, 196
200, 194, 173, 188
179, 174, 186, 178
191, 186, 160, 168
173, 155, 183, 215
190, 185, 198, 200
195, 174, 201, 191
186, 165, 217, 190
199, 176, 203, 186
187, 188, 176, 182
207, 181, 223, 203
214, 230, 201, 187
199, 214, 196, 201
185, 187, 203, 202
182, 213, 207, 191
200, 207, 195, 205
192, 194, 188, 207
189, 215, 214, 204
209, 207, 190, 214
227, 206, 198, 193
202, 194, 219, 193
229, 191, 214, 190
214, 188, 186, 193
188, 219, 207, 191
195, 213, 201, 220
207, 199, 215, 177
208, 217, 226, 240
221, 244, 232, 286
299, 280, 278, 301
288, 291, 287, 276
242, 213, 198, 222
207, 211, 210, 200
213, 223, 227, 225
204, 210, 215, 198
225, 217, 194, 225
208, 225, 208, 217
202, 208, 213, 214
239, 194, 216, 211
220, 188, 220, 229
214, 208, 224, 229
205, 211, 228, 197
232, 220, 205, 204
210, 218, 230, 219
208, 208, 209, 211
222, 226, 219, 242
222, 201, 204, 228
226, 218, 213, 222
202, 214, 227, 219
225, 242, 210, 244
222, 224, 232, 252
215, 200, 226, 246
240, 233, 233, 204
251, 227, 229, 219
228, 221, 219, 231
205, 225, 222, 224
204, 199, 217, 210
221, 210, 231, 201
221, 234, 250, 239
251, 243, 255, 225
216, 251, 251, 230
240, 226, 226, 241
237, 255, 224, 238
244, 224, 250, 247
234, 228, 225, 243
225, 242, 232, 233
219, 237, 223, 239
213, 250, 243, 238
248, 229, 211, 233
236, 240, 250, 237
221, 273, 255, 230
230, 222, 242, 210
224, 237, 232, 239
251, 285, 251, 262
241, 246, 262, 243
242, 234, 247, 242
217, 244, 264, 265
242, 241, 250, 241
234, 256, 244, 224
259, 274, 237, 260
243, 212, 217, 222
244, 264, 247, 236
252, 270, 263, 262
256, 244, 244, 255
263, 266, 253, 256
234, 234, 250, 240
235, 250, 237, 228
253, 239, 257, 270
258, 259, 234, 246
246, 248, 260, 274
254, 249, 269, 254
239, 237, 259, 268
257, 247, 243, 255
260, 250, 274, 284
262, 256, 251, 242
274, 265, 280, 284
273, 256, 250, 266
250, 282, 284, 244
254, 255, 257, 251
250, 267, 266, 245
248, 250, 262, 265
244, 248, 250, 258
273, 259, 273, 261
245, 239, 234, 253
262, 264, 242, 232
258, 279, 269, 250
269, 271, 264, 264
260, 276, 256, 263
263, 241, 261, 281
262, 247, 238, 241
253, 251, 243, 258
264, 264, 268, 250
271, 264, 263, 262
262, 260, 254, 260
258, 263, 232, 263
269, 264, 261, 243
237, 228, 242, 236
212, 218, 238, 234
246, 240, 242, 228
237, 255, 256, 264
271, 257, 247, 247
254, 268, 271, 257
256, 258, 265, 272
270, 262, 259, 259
272, 274, 257, 266
254, 235, 238, 247
267, 268, 256, 250
245, 243, 246, 245
250, 247, 255, 243
264, 263, 253, 259
257, 257, 249, 261
270, 258, 260, 248
247, 262, 265, 257
249, 233, 236, 267
280, 277, 267, 243
248, 260, 247, 244
277, 271, 246, 235
249, 252, 231, 242
252, 253, 245, 252
252, 251, 251, 255
265, 258, 249, 248
251, 252, 249, 268
281, 272, 261, 266
255, 234, 246, 255
256, 255, 247, 234
259, 274, 249, 224
231, 241, 253, 250
242, 259, 264, 243
234, 249, 249, 238
249, 253, 247, 260
249, 255, 248, 227
234, 235, 235, 239
256, 257, 257, 247
235, 230, 226, 236
236, 221, 234, 257
262, 258, 242, 240
270, 251, 237, 242
241, 248, 235, 225
234, 237, 225, 238
256, 248, 233, 236
223, 220, 226, 221
233, 228, 228, 243
235, 229, 235, 229
231, 250, 241, 237
250, 244, 245, 230
210, 216, 239, 244
236, 245, 242, 232
239, 249, 249, 240
223, 233, 249, 238
240, 235, 224, 229
229, 241, 250, 244
232, 221, 220, 240
254, 238, 221, 214
236, 248, 238, 231
228, 236, 232, 231
246, 238, 232, 236
221, 231, 239, 239
248, 235, 229, 222
220, 241, 242, 215
218, 226, 237, 241
247, 273, 285, 288
289, 326, 353, 360
360, 356, 374, 364
317, 292, 287, 286
268, 273, 253, 232
233, 213, 213, 235
254, 254, 243, 236
231, 223, 228, 239
229, 224, 219, 236
250, 230, 233, 243
228, 220, 221, 235
238, 238, 246, 221
226, 214, 216, 206
218, 241, 216, 209
217, 211, 221, 225
226, 228, 207, 231
232, 218, 216, 198
206, 216, 210, 219
221, 205, 205, 224
223, 197, 201, 227
232, 228, 221, 204
210, 235, 221, 216
216, 234, 235, 221
215, 206, 206, 214
207, 205, 209, 222
218, 228, 231, 221
216, 220, 216, 197
201, 212, 215, 210
212, 226, 217, 192
200, 220, 224, 211
220, 210, 210, 208
202, 193, 222, 241
214, 221, 203, 199
223, 223, 201, 222
224, 219, 230, 217
213, 212, 231, 225
213, 226, 223, 215
212, 219, 196, 187
192, 214, 217, 224
211, 204, 218, 211
225, 211, 227, 224
216, 193, 189, 204
206, 199, 202, 192
204, 218, 197, 205
212, 201, 206, 222
198, 194, 228, 203
199, 195, 197, 203
209, 206, 197, 197
220, 220, 223, 216
214, 203, 207, 192
206, 219, 209, 220
194, 201, 240, 227
201, 207, 186, 188
201, 201, 198, 201
214, 191, 190, 228
221, 186, 205, 208
189, 175, 202, 194
185, 205, 224, 199
198, 196, 193, 206
204, 200, 192, 221
203, 200, 206, 184
204, 205, 191, 206
209, 219, 227, 230
223, 204, 207, 210
223, 178, 178, 204
209, 200, 209, 218
223, 214, 215, 217
232, 218, 209, 229
241, 230, 216, 224
248, 276, 317, 369
425, 451, 569, 637
715, 733, 750, 726
686, 623, 567, 491
442, 368, 331, 324
277, 312, 260, 246
251, 253, 238, 239
230, 189, 191, 214
219, 173, 184, 205
193, 201, 201, 217
193, 178, 207, 209
189, 204, 186, 190
193, 185, 206, 224
173, 215, 178, 193
201, 199, 202, 197
198, 195, 191, 198
211, 209, 218, 189
189, 196, 207, 207
181, 187, 160, 201
188, 175, 191, 200
186, 201, 189, 222
219, 181, 176, 202
183, 195, 195, 200
184, 201, 193, 196
226, 210, 182, 183
207, 200, 198, 171
216, 218, 197, 204
205, 201, 218, 172
191, 197, 185, 208
184, 207, 196, 183
211, 178, 188, 181
191, 228, 192, 180
192, 206, 187, 208
199, 207, 195, 193
194, 183, 178, 190
172, 181, 218, 185
191, 203, 198, 208
181, 206, 194, 210
195, 189, 183, 198
186, 177, 209, 191
218, 174, 197, 199
189, 202, 195, 195
212, 179, 188, 208
183, 174, 195, 184
203, 195, 207, 198
207, 179, 171, 212
193, 183, 199, 180
204, 188, 168, 195
188, 173, 197, 209
184, 194, 188, 169
188, 196, 208, 184
173, 158, 175, 185
204, 202, 208, 188
181, 194, 178, 186
183, 213, 179, 189
190, 187, 197, 199
192, 180, 175, 189
189, 190, 204, 202
213, 201, 207, 179
195, 179, 181, 204
190, 176, 192, 191
179, 180, 204, 175
179, 202, 186, 202
197, 189, 202, 195
184, 199, 172, 190
188, 202, 196, 187
195, 196, 196, 193
188, 175, 186, 193
170, 204, 194, 192
179, 203, 198, 161
183, 189, 193, 191
200, 196, 213, 210
179, 176, 202, 181
178, 189, 200, 194
215, 185, 192, 171
182, 187, 177, 183
189, 201, 191, 197
187, 181, 215, 191
163, 194, 157, 198
190, 180, 204, 187
208, 163, 208, 187
214, 208, 196, 209
202, 179, 194, 192
187, 194, 203, 188
170, 184, 175, 211
196, 168, 180, 194
193, 195, 199, 209
185, 207, 197, 192
169, 184, 192, 201
192, 187, 174, 180
191, 174, 199, 176
174, 173, 194, 175
182, 188, 180, 172
194, 200, 189, 171
190, 185, 197, 194
192, 208, 211, 201
190, 191, 193, 203
198, 221, 199, 192
210, 209, 205, 224
227, 247, 289, 278
344, 457, 642, 783
810, 760, 746, 728
771, 813, 770, 718
619, 506, 422, 409
370, 357, 310, 238
242, 219, 223, 182
183, 186, 204, 193
194, 204, 178, 187
224, 200, 178, 205
204, 180, 170, 189
189, 201, 195, 215
202, 193, 198, 189
178, 212, 215, 184
182, 189, 196, 185
175, 196, 190, 188
193, 183, 203, 201
173, 204, 201, 197
183, 175, 185, 193
194, 180, 198, 183
183, 180, 180, 180
190, 178, 168, 185
195, 194, 199, 168
179, 191, 185, 175
193, 193, 176, 180
179, 180, 180, 187
166, 186, 186, 185
179, 185, 189, 187
185, 189, 195, 181
183, 179, 175, 177
190, 179, 164, 160
178, 193, 187, 176
187, 202, 193, 194
196, 188, 200, 192
185, 184, 176, 183
193, 193, 192, 196
180, 186, 175, 181
189, 184, 177, 170
187, 171, 162, 184
178, 170, 165, 184
166, 191, 188, 171
187, 192, 177, 175
178, 193, 201, 186
185, 193, 198, 168
184, 186, 185, 180
193, 204, 192, 184
191, 181, 186, 187
187, 200, 185, 201
185, 178, 181, 166
181, 173, 169, 184
184, 178, 181, 173
188, 187, 192, 209
189, 185, 192, 173
168, 183, 199, 204
198, 189, 176, 181
179, 182, 196, 190
202, 186, 172, 174
191, 187, 170, 181
192, 187, 176, 170
175, 186, 190, 187
184, 179, 181, 190
185, 177, 170, 167
173, 174, 181, 180
181, 173, 170, 173
198, 202, 196, 193
196, 184, 182, 184
183, 170, 184, 180
176, 170, 198, 204
185, 183, 184, 183
184, 188, 174, 165
183, 200, 195, 200
188, 165, 184, 182
181, 188, 184, 166
166, 161, 167, 191
207, 196, 171, 180
184, 176, 187, 197
186, 187, 178, 176
181, 177, 201, 197
193, 185, 181, 197
179, 178, 186, 202
186, 185, 182, 181
188, 174, 185, 189
164, 162, 174, 180
177, 170, 161, 173
187, 184, 178, 178
187, 190, 187, 180
169, 166, 177, 191
182, 164, 179, 185
175, 189, 189, 180
181, 188, 191, 185
171, 174, 183, 191
191, 188, 179, 177
178, 168, 174, 186
187, 191, 195, 186
171, 178, 182, 176
182, 173, 181, 198
187, 180, 192, 187
194, 193, 180, 184
175, 177, 197, 188
189, 191, 196, 188
179, 182, 176, 183
196, 199, 188, 177
174, 178, 178, 185
191, 193, 183, 176
188, 173, 168, 183
193, 197, 182, 183
204, 211, 196, 190
187, 196, 198, 175
168, 165, 174, 208
199, 182, 193, 197
186, 173, 180, 182
168, 167, 179, 185
180, 181, 182, 169
185, 188, 176, 180
182, 178, 175, 183
183, 171, 169, 170
170, 176, 190, 181
155, 171, 191, 187
197, 192, 171, 177
190, 183, 169, 172
190, 191, 176, 186
186, 174, 170, 166
173, 178, 181, 181
178, 184, 188, 189
190, 196, 189, 172
185, 192, 170, 160
168, 173, 179, 189
187, 193, 191, 179
183, 194, 183, 179
186, 185, 177, 183
183, 173, 175, 183
176, 182, 188, 170
183, 185, 184, 195
193, 177, 173, 178
180, 178, 181, 181
166, 165, 177, 202
233, 237, 249, 265
263, 259, 247, 238
251, 252, 268, 267
224, 205, 201, 212
200, 199, 203, 195
207, 205, 176, 166
173, 169, 173, 181
187, 186, 180, 183
185, 182, 186, 194
189, 185, 189, 181
182, 172, 176, 183
172, 167, 174, 181
191, 194, 183, 184
175, 168, 171, 184
185, 192, 193, 179
177, 179, 196, 197
182, 175, 169, 162
163, 178, 197, 195
181, 175, 179, 180
182, 191, 180, 172
175, 175, 172, 176
185, 187, 186, 191
185, 190, 196, 187
178, 176, 176, 170
185, 194, 176, 186
196, 184, 194, 198
178, 164, 172, 173
186, 191, 188, 180
171, 183, 164, 160
181, 169, 174, 178
160, 165, 169, 179
179, 170, 177, 195
190, 182, 175, 174
182, 181, 189, 178
179, 197, 195, 164
170, 194, 199, 172
170, 198, 211, 186
182, 180, 171, 165
180, 184, 181, 188
190, 191, 195, 183
175, 193, 192, 182
191, 193, 200, 183
185, 191, 193, 194
189, 199, 216, 227
227, 251, 258, 280
335, 456, 611, 746
898, 989, 942, 831
738, 646, 615, 632
624, 614, 596, 534
472, 388, 305, 269
251, 234, 219, 216
218, 212, 202, 208
195, 188, 183, 178
189, 180, 178, 187
187, 186, 194, 191
195, 198, 177, 163
160, 167, 169, 162
173, 181, 171, 169
175, 186, 187, 186
196, 200, 180, 174
179, 185, 181, 184
190, 189, 187, 189
192, 188, 175, 188
196, 198, 195, 169
175, 171, 191, 193
173, 165, 186, 196
171, 174, 181, 179
184, 200, 196, 195
185, 182, 194, 196
201, 192, 193, 193
181, 163, 164, 187
180, 181, 185, 187
185, 168, 169, 184
167, 172, 182, 184
173, 176, 193, 189
187, 189, 181, 192
207, 196, 184, 182
190, 200, 190, 171
174, 196, 193, 192
181, 175, 177, 170
169, 175, 170, 169
167, 188, 181, 176
169, 165, 166, 163
174, 193, 199, 185
172, 164, 167, 185
179, 174, 181, 177
173, 174, 174, 177
180, 185, 185, 180
185, 202, 183, 186
176, 166, 169, 172
190, 196, 179, 171
196, 198, 183, 173
188, 183, 186, 173
189, 189, 193, 198
182, 166, 179, 183
175, 173, 183, 200
183, 182, 174, 184
179, 178, 177, 188
170, 178, 188, 191
204, 187, 178, 174
169, 191, 196, 192
188, 173, 165, 199
192, 194, 178, 181
178, 186, 193, 180
175, 180, 186, 177
176, 157, 160, 171
174, 173, 156, 168
185, 195, 177, 166
185, 174, 160, 162
172, 168, 184, 198
178, 167, 172, 185
189, 177, 180, 181
177, 174, 177, 182
163, 170, 179, 161
171, 179, 184, 178
184, 164, 174, 200
191, 171, 186, 183
190, 217, 235, 248
259, 273, 283, 306
318, 313, 347, 340
342, 343, 329, 308
285, 278, 259, 259
251, 256, 251, 216
224, 213, 202, 180
175, 194, 199, 178
186, 179, 194, 177
186, 195, 183, 180
182, 176, 171, 210
202, 183, 175, 188
172, 173, 180, 160
171, 176, 170, 178
177, 164, 164, 179
195, 188, 186, 185
184, 171, 194, 186
167, 172, 176, 161
187, 183, 170, 169
188, 162, 179, 176
176, 189, 176, 187
183, 180, 167, 167
165, 178, 170, 171
179, 165, 168, 186
186, 189, 177, 172
164, 181, 176, 202
178, 170, 184, 186
170, 183, 187, 174
176, 178, 176, 200
184, 189, 159, 183
175, 176, 193, 178
187, 190, 199, 182
178, 175, 159, 161
159, 176, 176, 165
164, 188, 184, 172
188, 175, 169, 170
163, 168, 174, 167
194, 186, 199, 173
185, 184, 187, 176
181, 162, 173, 196
174, 172, 174, 152
162, 182, 172, 179
169, 178, 157, 154
195, 177, 197, 186
173, 191, 185, 182
167, 170, 183, 166
190, 206, 187, 182
168, 140, 172, 181
176, 166, 159, 176
179, 190, 154, 171
168, 179, 149, 155
163, 158, 174, 184
163, 163, 173, 167
192, 171, 171, 177
165, 141, 163, 154
195, 184, 156, 159
196, 171, 159, 181
188, 186, 155, 161
166, 184, 171, 158
180, 169, 174, 159
188, 167, 183, 200
175, 157, 175, 172
167, 184, 157, 168
179, 162, 186, 170
188, 190, 190, 190
*END

*EOF
