*TYPE		=  Raw
*CLASS		=  ASCII CLASS
*SAMPLE		=  Olivine
*COMMENT	=   
*FNAME		=  olivine_sample_Theta_2-Theta.asc
*DATE		=  04-Mar-26 10:14

*GROUP_COUNT	=  1
*GONIO		=  MiniFlex 300/600 +, 150
*ATTACHMENT	=  ASC-6
*ASC		=  0, 0, 0.000000, 0.000000
*FILTER		=  None
*C_MONOCHRO	=  None, 0.000000
*SLIT_NAME	=  0, IHS
*SLIT_NAME	=  1, DS
*SLIT_NAME	=  2, SS
*SLIT_NAME	=  3, RS
*COUNTER	=  SC-70, 0
*POS_FORMAT	=  0
*SCAN_AXIS	=  2theta/theta
*MEAS_MODE	=  Continuous Scanning
*TARGET		=  29
*XRAY_CHAR	=  K-ALPHA
*WAVE_LENGTH1	=  1.54059
*WAVE_LENGTH2	=  1.54441
*THICKNESS	=  0, 0.000000
*MU		=  0, 0.000000
*SCAN_MODE	=  2theta/theta
*SPEED_DIM	=  sec./step
*XUNIT		=  deg.
*YUNIT		=  counts
*SCALE_MODE	=  1
*REP_COUNT	=  0
*SE_COUNT	=  0
*STD_MATERIAL	=  Unknown, Unknown, 0.000000, 0.000000, 0.000000, 0.000000, 0.000000, 0.000000
*LATT_CONS	=  0, Unknown, Unknown, 0.000000, 0.000000, 0.000000, 0.000000, 0.000000, 0.000000
*SEC_COUNT	=  1
*TSPEC_SIZE	=  0
*EXTRA_SIZE	=  0
*MEMO		=   

*BEGIN
*GROUP		=  0
*START		=  2.01
*STOP		=  69.99
*STEP		=  0.02
*OFFSET		=  0.000000
*SPEED		=  0.6
*SLIT_SPEC	=  0, 10.0mm, 10, 0.000000
*SLIT_SPEC	=  1, 1.250deg, 1.25, 0.000000
*SLIT_SPEC	=  2, 13.0mm(Open), 13, 0.000000
*SLIT_SPEC	=  3, 13.0mm, 13, 0.000000
*KV		=  40
*MA		=  15
*LOW		=  0.000000
*HIGH		=  0.000000
*CTEMPER	=  0, 0.000000
*CTEMPER	=  1, 0.000000
*CTEMPER	=  2, 0.000000
*PAREX		=  0, 0.000000
*PAREX		=  1, 0.000000
*PAREX		=  2, 0.000000
*PAREX		=  3, 0.000000
*PAREX		=  4, 0.000000
*PAREX		=  5, 0.000000
*PAREX		=  6, 0.000000
*PAREX		=  7, 0.000000
*PAREX		=  8, 0.000000
*PAREX		=  9, 0.000000
*PAREX		=  10, 0.000000
*PAREX		=  11, 0.000000
*PAREX		=  12, 0.000000
*PAREX		=  13, 0.000000
*PAREX		=  14, 0.000000
*PAREX		=  15, 0.000000
*FULL_SCALE	=  1668
*INDEX		=  0, 0, 0
*COUNT		=  3400
79, 80, 80, 82
85, 76, 74, 85
91, 85, 72, 75
76, 87, 86, 79
81, 88, 88, 74
81, 83, 69, 67
68, 79, 75, 80
78, 80, 70, 88
78, 73, 71, 72
78, 83, 74, 82
80, 83, 78, 70
63, 64, 66, 57
59, 72, 74, 58
54, 56, 70, 65
57, 56, 55, 67
68, 68, 56, 60
55, 55, 60, 57
65, 66, 64, 69
61, 62, 62, 72
71, 66, 68, 75
69, 61, 66, 79
71, 70, 75, 68
63, 75, 76, 77
84, 90, 85, 78
78, 68, 64, 83
81, 73, 70, 82
85, 76, 65, 69
84, 88, 85, 75
77, 78, 74, 73
72, 74, 76, 76
74, 67, 74, 79
74, 73, 74, 73
86, 83, 71, 83
88, 82, 78, 86
92, 88, 88, 80
81, 95, 90, 89
96, 79, 83, 85
91, 98, 98, 95
93, 94, 90, 93
101, 102, 90, 91
95, 108, 103, 99
99, 96, 106, 100
94, 100, 100, 102
101, 103, 96, 97
93, 102, 107, 93
93, 106, 105, 98
93, 96, 98, 92
98, 101, 98, 105
112, 114, 102, 98
91, 104, 107, 91
103, 116, 120, 119
112, 118, 119, 117
120, 122, 121, 113
102, 113, 126, 119
112, 104, 118, 119
113, 111, 107, 113
113, 113, 113, 110
114, 127, 132, 127
125, 120, 122, 125
119, 121, 125, 113
119, 133, 131, 134
127, 133, 139, 124
120, 124, 136, 141
141, 136, 133, 144
144, 147, 146, 142
141, 151, 154, 142
148, 151, 148, 148
151, 148, 148, 140
150, 159, 148, 150
143, 145, 149, 145
155, 161, 154, 159
170, 156, 146, 163
163, 148, 161, 174
162, 147, 140, 157
159, 151, 143, 150
158, 158, 159, 158
160, 175, 173, 154
158, 164, 168, 163
170, 167, 160, 174
171, 166, 166, 165
159, 150, 161, 173
169, 153, 143, 160
162, 150, 161, 153
154, 169, 159, 146
154, 169, 163, 152
145, 150, 154, 149
162, 168, 169, 169
161, 163, 163, 156
160, 168, 160, 158
180, 183, 165, 162
164, 163, 153, 149
157, 159, 164, 170
148, 161, 163, 152
162, 153, 157, 154
148, 151, 161, 160
144, 155, 176, 172
163, 167, 175, 163
162, 156, 157, 159
164, 154, 159, 164
164, 168, 160, 165
176, 184, 170, 166
179, 176, 166, 171
167, 155, 150, 173
184, 174, 155, 154
161, 171, 167, 166
180, 182, 162, 154
162, 160, 157, 173
178, 170, 165, 182
179, 167, 181, 181
170, 162, 204, 196
186, 194, 194, 175
180, 180, 187, 203
198, 175, 178, 191
177, 189, 192, 197
190, 179, 176, 171
174, 183, 178, 181
179, 180, 179, 190
212, 187, 170, 181
177, 194, 212, 200
202, 200, 199, 206
198, 189, 195, 186
193, 204, 204, 194
189, 182, 192, 183
188, 198, 201, 205
191, 193, 201, 192
202, 176, 194, 195
203, 206, 225, 198
198, 212, 194, 220
222, 206, 201, 192
190, 182, 182, 202
200, 204, 209, 218
203, 210, 223, 212
220, 195, 204, 219
217, 228, 207, 195
210, 205, 195, 204
222, 218, 185, 197
218, 222, 207, 207
206, 223, 225, 212
212, 188, 200, 206
225, 213, 218, 238
223, 209, 216, 221
209, 204, 218, 216
226, 232, 222, 210
203, 205, 212, 206
215, 221, 193, 197
227, 213, 208, 217
224, 233, 221, 223
209, 206, 216, 194
206, 221, 196, 208
204, 206, 232, 213
222, 220, 203, 222
203, 224, 228, 203
212, 232, 224, 221
213, 194, 212, 222
221, 200, 208, 216
231, 204, 235, 234
199, 226, 238, 204
211, 238, 229, 201
208, 231, 233, 237
218, 231, 228, 205
219, 218, 224, 218
236, 255, 208, 209
206, 201, 208, 233
216, 212, 212, 242
230, 228, 219, 240
230, 216, 221, 215
218, 230, 218, 216
257, 238, 228, 210
206, 222, 221, 245
230, 220, 226, 211
212, 230, 222, 242
222, 211, 218, 231
221, 204, 230, 242
236, 223, 229, 232
234, 247, 261, 219
236, 225, 237, 261
241, 238, 251, 234
229, 218, 230, 263
234, 237, 236, 217
233, 234, 248, 256
238, 233, 250, 220
241, 226, 244, 231
237, 229, 252, 239
254, 262, 245, 234
239, 245, 241, 238
234, 212, 265, 261
242, 255, 242, 239
220, 246, 255, 260
235, 231, 245, 249
265, 254, 233, 242
254, 290, 284, 264
291, 312, 327, 335
373, 401, 418, 450
422, 437, 390, 326
339, 298, 290, 262
260, 223, 251, 251
245, 250, 267, 244
234, 270, 251, 226
250, 231, 244, 258
260, 235, 232, 233
245, 237, 234, 261
233, 257, 258, 239
240, 242, 241, 245
249, 239, 224, 266
242, 252, 260, 250
251, 227, 253, 238
243, 257, 271, 259
244, 253, 261, 252
251, 233, 247, 231
237, 255, 264, 265
243, 259, 263, 230
253, 225, 245, 238
238, 262, 255, 218
257, 252, 248, 226
257, 246, 238, 227
258, 259, 249, 223
251, 248, 243, 236
212, 267, 227, 271
246, 273, 256, 237
242, 257, 220, 247
233, 260, 246, 250
231, 257, 273, 223
227, 253, 245, 255
278, 217, 219, 229
247, 267, 243, 254
256, 250, 255, 262
265, 253, 264, 255
232, 227, 242, 239
247, 271, 249, 247
238, 233, 250, 238
232, 249, 245, 256
262, 261, 281, 230
252, 230, 226, 250
254, 251, 227, 273
256, 234, 234, 239
229, 233, 262, 243
247, 229, 240, 249
227, 238, 234, 259
235, 244, 231, 246
238, 257, 273, 231
228, 256, 247, 237
230, 255, 249, 245
251, 239, 246, 232
209, 234, 242, 247
264, 246, 250, 221
255, 284, 247, 246
248, 251, 239, 243
227, 236, 244, 253
230, 252, 258, 239
233, 251, 253, 260
230, 223, 242, 253
257, 251, 264, 243
239, 223, 281, 249
259, 265, 276, 261
242, 256, 235, 239
224, 257, 253, 248
273, 241, 245, 286
240, 249, 257, 246
264, 250, 278, 297
287, 280, 265, 289
322, 385, 469, 523
607, 622, 612, 618
589, 524, 409, 400
351, 336, 298, 275
261, 257, 280, 261
258, 240, 242, 242
253, 262, 257, 248
234, 249, 225, 237
244, 259, 240, 237
238, 256, 275, 209
225, 242, 232, 233
263, 235, 250, 225
247, 240, 257, 275
278, 291, 332, 364
410, 411, 473, 482
433, 388, 336, 325
280, 258, 242, 232
248, 245, 247, 240
246, 276, 231, 219
228, 252, 239, 236
229, 240, 239, 257
250, 253, 234, 237
243, 251, 250, 235
222, 223, 246, 264
246, 238, 242, 247
252, 256, 228, 259
226, 246, 242, 247
236, 237, 242, 253
266, 254, 227, 231
254, 256, 244, 253
257, 237, 220, 228
257, 266, 251, 277
277, 277, 272, 316
376, 398, 451, 521
620, 779, 920, 988
1051, 991, 843, 780
745, 664, 602, 468
395, 378, 335, 268
251, 237, 262, 254
242, 249, 235, 231
243, 241, 215, 244
255, 265, 253, 242
246, 266, 240, 246
241, 249, 236, 242
254, 244, 243, 241
246, 253, 242, 240
228, 240, 234, 236
241, 237, 242, 237
249, 240, 236, 236
229, 254, 252, 241
225, 219, 231, 253
236, 238, 239, 229
246, 245, 236, 252
248, 226, 256, 240
238, 241, 248, 245
228, 224, 240, 227
233, 243, 249, 234
230, 231, 237, 245
245, 243, 243, 235
261, 264, 242, 243
241, 244, 251, 247
234, 246, 249, 240
228, 230, 264, 257
230, 233, 230, 230
222, 233, 253, 261
251, 258, 238, 243
242, 232, 247, 253
257, 274, 290, 288
297, 297, 287, 272
249, 240, 254, 258
240, 247, 245, 236
221, 224, 243, 252
238, 249, 248, 228
231, 246, 254, 245
247, 226, 214, 230
252, 261, 254, 257
237, 233, 243, 223
223, 239, 229, 239
248, 256, 255, 243
240, 240, 247, 260
268, 258, 264, 254
246, 248, 227, 235
254, 240, 248, 268
258, 238, 228, 236
248, 245, 240, 251
264, 275, 285, 294
305, 311, 321, 313
302, 314, 354, 370
369, 387, 394, 390
376, 363, 332, 285
263, 257, 255, 249
245, 237, 223, 240
252, 244, 243, 247
236, 234, 230, 226
249, 255, 257, 256
261, 242, 231, 247
233, 229, 225, 226
243, 245, 235, 234
250, 248, 243, 237
242, 255, 244, 228
218, 234, 244, 232
226, 226, 227, 248
247, 234, 228, 241
239, 222, 241, 241
238, 265, 262, 248
233, 219, 234, 246
235, 243, 238, 233
251, 267, 255, 235
225, 228, 236, 239
242, 243, 247, 250
263, 251, 248, 262
241, 242, 257, 252
238, 250, 245, 247
243, 236, 250, 259
253, 246, 264, 271
276, 286, 278, 266
274, 284, 291, 280
282, 278, 296, 321
333, 352, 406, 512
596, 677, 745, 742
735, 682, 580, 507
473, 404, 353, 297
288, 288, 288, 280
248, 246, 249, 240
231, 231, 251, 264
252, 229, 224, 233
244, 249, 253, 259
259, 265, 254, 233
244, 250, 249, 236
243, 252, 243, 248
229, 231, 246, 232
232, 241, 228, 227
230, 229, 233, 234
254, 234, 234, 249
236, 227, 237, 247
230, 248, 266, 253
231, 223, 249, 224
228, 230, 240, 228
248, 253, 237, 250
231, 211, 225, 240
245, 250, 250, 252
251, 231, 239, 231
226, 236, 238, 252
243, 249, 233, 241
236, 235, 254, 243
237, 232, 235, 230
238, 254, 251, 252
247, 258, 266, 253
237, 244, 228, 230
232, 238, 272, 267
243, 231, 237, 249
256, 226, 234, 237
226, 230, 248, 272
240, 224, 219, 227
244, 238, 228, 227
262, 280, 274, 224
223, 232, 251, 259
251, 269, 269, 269
252, 262, 239, 276
278, 279, 279, 307
357, 387, 492, 605
674, 724, 781, 821
840, 801, 674, 613
582, 512, 456, 383
332, 337, 298, 300
255, 261, 282, 269
264, 281, 276, 277
272, 285, 294, 280
306, 303, 319, 302
304, 306, 327, 347
340, 370, 407, 454
511, 638, 758, 850
954, 982, 945, 981
924, 778, 641, 537
493, 430, 365, 295
256, 261, 279, 265
236, 274, 256, 269
267, 241, 255, 250
263, 258, 259, 249
250, 256, 243, 235
228, 209, 233, 247
235, 224, 248, 231
232, 228, 249, 236
246, 263, 252, 246
230, 227, 252, 257
237, 249, 239, 250
256, 215, 237, 224
217, 228, 262, 236
244, 241, 247, 228
247, 220, 245, 252
267, 219, 247, 250
263, 262, 245, 256
262, 265, 261, 345
458, 579, 682, 734
700, 648, 605, 548
502, 471, 397, 341
297, 282, 294, 242
266, 282, 236, 250
259, 277, 232, 237
248, 252, 255, 260
250, 296, 342, 353
409, 428, 428, 428
425, 445, 396, 370
331, 341, 299, 253
248, 238, 240, 231
242, 240, 244, 256
243, 268, 276, 220
229, 242, 255, 253
241, 281, 267, 254
269, 273, 281, 311
346, 330, 389, 427
456, 437, 508, 481
480, 464, 446, 422
380, 379, 313, 333
323, 329, 379, 441
561, 641, 674, 661
689, 668, 616, 516
508, 515, 428, 379
295, 297, 308, 280
280, 274, 264, 291
269, 269, 253, 284
252, 264, 251, 263
244, 265, 274, 240
241, 227, 223, 236
205, 252, 241, 243
228, 233, 267, 236
231, 242, 228, 231
224, 236, 212, 232
231, 259, 230, 223
215, 257, 228, 252
249, 225, 230, 248
227, 249, 244, 217
250, 243, 237, 247
245, 224, 261, 221
254, 236, 233, 210
238, 233, 232, 241
245, 266, 277, 297
323, 315, 332, 359
327, 309, 276, 296
284, 291, 285, 260
261, 254, 267, 267
258, 241, 240, 254
245, 229, 243, 231
224, 247, 230, 235
261, 246, 228, 236
234, 210, 212, 240
238, 250, 258, 266
242, 242, 234, 237
237, 221, 232, 224
229, 218, 211, 243
259, 209, 228, 238
251, 224, 223, 236
249, 232, 252, 242
222, 245, 249, 238
241, 240, 237, 243
234, 219, 220, 208
235, 234, 247, 229
215, 231, 239, 243
247, 236, 248, 213
246, 232, 238, 243
260, 256, 220, 223
229, 235, 247, 241
241, 238, 248, 244
235, 233, 230, 225
248, 228, 223, 236
263, 232, 250, 239
239, 228, 227, 227
239, 226, 236, 237
240, 236, 237, 221
244, 223, 247, 242
255, 271, 254, 250
273, 261, 277, 291
295, 271, 258, 266
286, 274, 287, 292
287, 249, 250, 267
251, 251, 223, 242
229, 231, 250, 221
231, 219, 224, 246
248, 240, 230, 215
233, 230, 222, 238
223, 222, 236, 241
236, 232, 226, 234
235, 241, 246, 254
222, 223, 223, 251
234, 242, 250, 233
230, 228, 211, 234
240, 246, 241, 241
230, 238, 233, 232
234, 244, 242, 251
249, 231, 261, 258
238, 242, 217, 244
248, 229, 219, 201
221, 247, 251, 244
246, 254, 241, 252
239, 217, 222, 240
253, 234, 235, 233
230, 240, 229, 236
230, 251, 251, 246
273, 257, 252, 238
260, 274, 276, 248
254, 267, 266, 241
247, 260, 245, 236
249, 249, 237, 242
242, 243, 234, 226
243, 226, 244, 246
224, 230, 244, 226
240, 243, 247, 252
244, 248, 257, 247
241, 229, 232, 252
242, 242, 230, 231
238, 240, 241, 232
227, 248, 257, 239
237, 228, 240, 239
233, 227, 228, 209
197, 214, 238, 237
229, 212, 221, 242
243, 221, 221, 225
215, 242, 244, 216
243, 232, 225, 234
257, 256, 246, 232
241, 264, 284, 276
268, 266, 250, 260
266, 259, 252, 238
232, 235, 216, 225
234, 229, 234, 229
244, 230, 231, 255
243, 229, 241, 237
252, 266, 262, 245
248, 256, 249, 252
248, 236, 229, 229
214, 230, 240, 238
229, 204, 211, 216
227, 232, 242, 236
230, 231, 248, 238
235, 221, 231, 251
240, 227, 220, 213
236, 262, 226, 224
236, 222, 221, 235
233, 217, 223, 219
227, 238, 243, 247
245, 245, 231, 238
247, 236, 221, 231
234, 231, 231, 253
256, 249, 262, 260
244, 247, 245, 236
253, 244, 234, 251
243, 253, 265, 254
253, 243, 235, 246
252, 252, 245, 234
234, 238, 235, 220
217, 238, 247, 245
241, 236, 252, 257
247, 255, 261, 254
238, 242, 246, 230
249, 246, 245, 250
235, 230, 231, 233
229, 222, 227, 239
228, 226, 240, 236
245, 242, 229, 222
224, 233, 223, 222
238, 230, 232, 238
244, 235, 227, 244
248, 245, 238, 234
228, 239, 242, 245
249, 253, 246, 236
231, 262, 269, 260
265, 260, 273, 290
302, 327, 344, 350
379, 400, 428, 440
388, 380, 361, 351
388, 387, 390, 431
491, 670, 924, 1221
1390, 1262, 902, 606
565, 658, 759, 809
764, 596, 417, 333
321, 319, 322, 345
349, 344, 318, 291
276, 279, 281, 282
303, 298, 276, 241
235, 243, 228, 223
230, 231, 238, 245
244, 228, 223, 247
237, 211, 211, 213
220, 231, 234, 240
228, 234, 244, 227
209, 214, 235, 231
223, 222, 218, 223
234, 229, 229, 237
237, 250, 257, 233
207, 215, 233, 228
228, 233, 237, 244
238, 223, 226, 247
242, 232, 226, 213
228, 240, 222, 210
210, 220, 237, 221
231, 249, 232, 228
233, 227, 233, 252
245, 243, 244, 240
240, 232, 244, 247
251, 264, 257, 252
253, 275, 298, 288
267, 255, 265, 275
269, 262, 278, 283
270, 258, 237, 233
242, 244, 249, 253
237, 218, 228, 227
228, 230, 227, 238
247, 243, 234, 234
244, 238, 224, 231
244, 241, 231, 232
255, 250, 233, 247
244, 243, 251, 243
219, 214, 208, 232
250, 239, 248, 249
243, 237, 233, 229
227, 239, 259, 276
291, 304, 331, 375
406, 400, 371, 351
331, 331, 323, 319
326, 300, 282, 269
263, 254, 249, 249
239, 224, 236, 258
256, 256, 237, 234
240, 238, 260, 261
266, 277, 270, 290
341, 364, 391, 424
401, 356, 309, 292
307, 331, 344, 332
308, 295, 260, 256
252, 237, 253, 242
227, 227, 230, 240
240, 247, 235, 227
236, 231, 243, 258
242, 226, 222, 223
230, 234, 218, 216
223, 236, 234, 233
253, 236, 245, 260
259, 243, 234, 243
215, 230, 232, 237
255, 292, 304, 293
297, 283, 274, 275
259, 268, 262, 256
243, 232, 241, 236
240, 236, 221, 221
231, 242, 237, 225
222, 228, 238, 227
220, 224, 224, 243
247, 254, 288, 289
299, 302, 311, 377
435, 449, 400, 334
296, 281, 307, 306
323, 345, 306, 280
266, 237, 246, 252
264, 248, 223, 233
222, 220, 233, 219
239, 238, 217, 223
237, 238, 228, 236
243, 230, 223, 225
222, 229, 240, 235
232, 223, 213, 234
242, 228, 223, 231
228, 225, 220, 220
221, 209, 222, 233
227, 217, 230, 235
217, 226, 226, 220
242, 237, 231, 219
224, 235, 234, 250
236, 221, 228, 228
219, 229, 239, 260
246, 233, 232, 240
248, 245, 236, 231
241, 249, 251, 243
241, 222, 229, 239
233, 233, 228, 241
245, 221, 228, 213
225, 237, 232, 231
229, 246, 238, 241
239, 222, 241, 255
238, 231, 235, 239
244, 237, 264, 281
263, 260, 283, 315
341, 362, 364, 341
301, 262, 257, 271
282, 290, 305, 312
282, 296, 303, 283
271, 269, 267, 271
282, 286, 303, 284
303, 322, 345, 405
522, 721, 998, 1261
1372, 1306, 1060, 776
601, 566, 650, 739
819, 812, 722, 575
426, 348, 303, 278
269, 267, 249, 243
250, 251, 255, 272
283, 259, 270, 263
249, 244, 266, 259
264, 279, 272, 288
346, 382, 425, 434
443, 427, 377, 358
370, 373, 363, 343
363, 346, 336, 320
299, 299, 292, 270
260, 272, 271, 270
251, 240, 228, 233
230, 235, 256, 247
230, 250, 231, 254
247, 224, 232, 237
227, 222, 231, 240
244, 231, 234, 229
255, 239, 233, 220
224, 220, 230, 219
226, 218, 230, 225
199, 229, 233, 213
240, 225, 214, 214
231, 244, 243, 243
223, 228, 210, 213
228, 248, 226, 240
248, 218, 216, 206
240, 231, 230, 218
217, 227, 229, 240
228, 236, 242, 229
226, 223, 222, 239
221, 226, 230, 242
246, 243, 234, 255
266, 252, 248, 226
247, 258, 229, 208
222, 240, 257, 240
219, 209, 221, 210
219, 229, 233, 253
202, 219, 226, 235
237, 233, 219, 236
255, 223, 222, 222
224, 237, 233, 239
229, 234, 222, 211
235, 251, 214, 216
214, 223, 224, 239
215, 220, 227, 204
234, 230, 211, 233
234, 225, 220, 230
223, 211, 215, 217
229, 213, 234, 232
232, 220, 233, 215
225, 236, 221, 215
228, 233, 223, 217
239, 232, 227, 210
236, 250, 217, 223
225, 244, 255, 228
241, 222, 240, 250
259, 266, 241, 239
268, 239, 260, 250
281, 288, 285, 327
373, 451, 477, 487
486, 436, 401, 326
323, 354, 346, 350
347, 369, 346, 288
270, 276, 274, 252
244, 272, 264, 269
249, 256, 244, 240
235, 252, 223, 232
240, 247, 247, 242
260, 228, 237, 247
237, 230, 208, 218
221, 220, 238, 222
194, 233, 214, 229
213, 223, 260, 235
227, 253, 232, 229
251, 233, 221, 229
232, 231, 221, 227
230, 215, 216, 212
235, 215, 225, 216
209, 202, 225, 251
248, 211, 236, 209
244, 265, 232, 237
220, 245, 216, 229
214, 213, 232, 197
210, 206, 208, 243
234, 244, 243, 225
251, 238, 218, 221
205, 242, 234, 203
214, 217, 237, 226
259, 234, 237, 236
242, 261, 238, 244
286, 262, 281, 269
266, 258, 291, 269
256, 267, 294, 261
319, 287, 295, 301
337, 288, 278, 245
240, 236, 265, 264
250, 249, 249, 249
*END

*EOF
