*TYPE		=  Raw
*CLASS		=  ASCII CLASS
*SAMPLE		=  Silicate glass
*COMMENT	=   
*FNAME		=  silicate_glass_sample_Theta_2-Theta.asc
*DATE		=  04-Mar-26 10:48

*GROUP_COUNT	=  1
*GONIO		=  MiniFlex 300/600 +, 150
*ATTACHMENT	=  ASC-6
*ASC		=  0, 0, 0.000000, 0.000000
*FILTER		=  None
*C_MONOCHRO	=  None, 0.000000
*SLIT_NAME	=  0, IHS
*SLIT_NAME	=  1, DS
*SLIT_NAME	=  2, SS
*SLIT_NAME	=  3, RS
*COUNTER	=  SC-70, 0
*POS_FORMAT	=  0
*SCAN_AXIS	=  2theta/theta
*MEAS_MODE	=  Continuous Scanning
*TARGET		=  29
*XRAY_CHAR	=  K-ALPHA
*WAVE_LENGTH1	=  1.54059
*WAVE_LENGTH2	=  1.54441
*THICKNESS	=  0, 0.000000
*MU		=  0, 0.000000
*SCAN_MODE	=  2theta/theta
*SPEED_DIM	=  sec./step
*XUNIT		=  deg.
*YUNIT		=  counts
*SCALE_MODE	=  1
*REP_COUNT	=  0
*SE_COUNT	=  0
*STD_MATERIAL	=  Unknown, Unknown, 0.000000, 0.000000, 0.000000, 0.000000, 0.000000, 0.000000
*LATT_CONS	=  0, Unknown, Unknown, 0.000000, 0.000000, 0.000000, 0.000000, 0.000000, 0.000000
*SEC_COUNT	=  1
*TSPEC_SIZE	=  0
*EXTRA_SIZE	=  0
*MEMO		=   

*BEGIN
*GROUP		=  0
*START		=  2.01
*STOP		=  69.99
*STEP		=  0.02
*OFFSET		=  0.000000
*SPEED		=  0.6
*SLIT_SPEC	=  0, 10.0mm, 10, 0.000000
*SLIT_SPEC	=  1, 1.250deg, 1.25, 0.000000
*SLIT_SPEC	=  2, 13.0mm(Open), 13, 0.000000
*SLIT_SPEC	=  3, 13.0mm, 13, 0.000000
*KV		=  40
*MA		=  15
*LOW		=  0.000000
*HIGH		=  0.000000
*CTEMPER	=  0, 0.000000
*CTEMPER	=  1, 0.000000
*CTEMPER	=  2, 0.000000
*PAREX		=  0, 0.000000
*PAREX		=  1, 0.000000
*PAREX		=  2, 0.000000
*PAREX		=  3, 0.000000
*PAREX		=  4, 0.000000
*PAREX		=  5, 0.000000
*PAREX		=  6, 0.000000
*PAREX		=  7, 0.000000
*PAREX		=  8, 0.000000
*PAREX		=  9, 0.000000
*PAREX		=  10, 0.000000
*PAREX		=  11, 0.000000
*PAREX		=  12, 0.000000
*PAREX		=  13, 0.000000
*PAREX		=  14, 0.000000
*PAREX		=  15, 0.000000
*FULL_SCALE	=  216
*INDEX		=  0, 0, 0
*COUNT		=  3400
73, 75, 79, 87
83, 75, 81, 80
79, 72, 80, 81
87, 83, 77, 81
78, 87, 90, 77
74, 72, 67, 67
73, 72, 75, 71
65, 68, 74, 71
59, 65, 68, 62
54, 57, 58, 55
59, 56, 52, 57
67, 50, 39, 58
59, 53, 46, 49
52, 52, 48, 48
40, 42, 44, 40
46, 50, 43, 51
53, 48, 46, 44
47, 55, 52, 47
44, 44, 50, 44
47, 43, 48, 59
56, 46, 39, 38
40, 45, 55, 46
48, 48, 34, 45
56, 51, 52, 45
38, 45, 46, 46
45, 47, 47, 40
38, 48, 49, 43
36, 41, 42, 36
42, 46, 47, 52
60, 52, 46, 43
36, 47, 56, 54
47, 49, 53, 54
50, 47, 51, 56
50, 45, 49, 49
41, 44, 49, 56
53, 45, 54, 48
42, 47, 52, 52
50, 51, 49, 47
45, 39, 40, 41
44, 53, 47, 42
49, 45, 48, 52
52, 53, 49, 50
51, 55, 54, 48
50, 47, 38, 49
56, 50, 53, 50
49, 51, 63, 65
66, 61, 55, 61
60, 62, 64, 57
59, 61, 54, 55
53, 54, 55, 60
56, 55, 56, 59
66, 65, 68, 65
63, 62, 57, 63
68, 64, 60, 59
56, 56, 66, 73
63, 55, 64, 70
60, 61, 64, 59
58, 59, 61, 67
63, 68, 77, 73
62, 59, 65, 64
57, 55, 66, 70
56, 51, 60, 64
62, 56, 53, 58
60, 60, 60, 50
56, 65, 62, 59
57, 63, 66, 55
57, 62, 58, 60
61, 55, 46, 42
51, 60, 57, 55
47, 50, 55, 60
56, 50, 56, 54
48, 54, 62, 62
61, 57, 50, 52
54, 57, 59, 49
48, 55, 55, 54
50, 41, 43, 44
47, 51, 53, 61
61, 58, 63, 56
52, 54, 55, 59
49, 41, 47, 50
52, 54, 53, 51
45, 55, 56, 50
54, 58, 59, 51
54, 50, 50, 57
56, 60, 59, 59
55, 46, 51, 51
59, 60, 47, 52
55, 44, 49, 56
57, 59, 67, 69
60, 52, 54, 46
43, 50, 53, 60
56, 49, 53, 55
53, 59, 55, 46
48, 68, 58, 39
42, 51, 58, 55
55, 64, 65, 58
52, 57, 57, 51
47, 56, 50, 48
52, 57, 66, 67
61, 54, 56, 65
68, 61, 52, 57
57, 57, 65, 64
50, 56, 65, 60
70, 69, 66, 61
52, 53, 57, 62
59, 56, 54, 53
56, 60, 66, 64
60, 60, 61, 60
57, 65, 72, 72
62, 60, 58, 50
55, 62, 58, 59
68, 72, 73, 70
64, 67, 75, 69
49, 48, 57, 53
52, 67, 73, 68
65, 60, 57, 58
64, 63, 68, 65
58, 63, 64, 62
62, 59, 65, 64
58, 59, 53, 57
70, 67, 82, 70
62, 69, 63, 61
61, 56, 64, 66
61, 66, 69, 66
65, 62, 58, 64
65, 67, 58, 71
74, 73, 73, 78
77, 66, 67, 67
55, 63, 65, 64
67, 74, 77, 70
70, 71, 72, 64
64, 60, 71, 62
76, 81, 72, 68
66, 80, 72, 63
58, 68, 78, 79
74, 72, 74, 70
63, 66, 69, 66
69, 87, 68, 73
80, 75, 72, 67
60, 65, 61, 66
62, 72, 73, 60
74, 74, 69, 65
83, 80, 70, 74
69, 61, 73, 66
72, 70, 79, 67
73, 69, 74, 72
77, 62, 68, 67
65, 74, 75, 67
74, 82, 80, 70
64, 72, 76, 85
67, 59, 75, 72
85, 75, 89, 85
77, 69, 78, 73
83, 62, 79, 77
79, 79, 79, 82
77, 69, 67, 80
82, 84, 90, 93
82, 83, 91, 80
74, 84, 84, 85
71, 80, 74, 91
76, 83, 86, 86
98, 75, 79, 78
78, 86, 90, 85
92, 85, 83, 94
79, 82, 81, 80
90, 86, 76, 85
98, 95, 104, 89
83, 82, 72, 85
67, 78, 94, 73
81, 94, 80, 84
90, 80, 85, 82
82, 92, 91, 81
99, 88, 77, 102
85, 86, 86, 100
97, 103, 99, 91
93, 88, 90, 84
103, 92, 86, 100
86, 79, 94, 90
91, 79, 90, 80
83, 88, 104, 110
99, 94, 104, 102
93, 95, 107, 86
95, 95, 88, 99
97, 93, 104, 101
98, 106, 90, 105
103, 101, 101, 96
105, 93, 107, 108
85, 93, 106, 118
98, 99, 115, 105
88, 88, 107, 120
101, 93, 102, 104
101, 105, 129, 110
102, 88, 113, 111
102, 118, 112, 113
100, 104, 104, 122
108, 117, 132, 118
106, 104, 119, 113
125, 96, 111, 108
106, 102, 108, 105
113, 119, 96, 110
108, 96, 115, 112
108, 101, 130, 96
112, 107, 121, 124
120, 117, 121, 117
113, 137, 99, 131
98, 110, 106, 123
127, 125, 110, 130
113, 124, 129, 120
100, 120, 138, 120
124, 142, 124, 112
124, 114, 104, 142
99, 106, 119, 139
138, 128, 124, 148
123, 143, 110, 125
132, 113, 143, 131
130, 127, 124, 115
119, 119, 134, 116
126, 132, 121, 120
140, 105, 121, 135
132, 147, 131, 141
134, 130, 139, 130
117, 115, 155, 132
139, 124, 147, 144
127, 138, 118, 117
144, 132, 142, 140
138, 132, 121, 137
135, 166, 132, 130
148, 157, 125, 128
140, 162, 155, 142
142, 141, 140, 134
138, 118, 142, 135
140, 141, 141, 169
126, 148, 159, 141
144, 151, 145, 154
135, 140, 162, 159
153, 130, 151, 144
142, 152, 138, 143
132, 144, 139, 142
150, 159, 167, 167
148, 137, 148, 167
150, 148, 152, 139
143, 127, 147, 151
164, 150, 147, 142
146, 163, 130, 141
149, 154, 139, 152
143, 136, 154, 139
141, 146, 127, 159
170, 129, 146, 155
142, 151, 145, 163
158, 138, 150, 153
140, 148, 162, 158
164, 153, 143, 169
141, 141, 155, 151
137, 144, 140, 150
131, 151, 156, 153
150, 148, 140, 156
160, 152, 152, 152
145, 147, 152, 139
150, 155, 178, 156
154, 149, 145, 156
139, 136, 148, 162
150, 136, 147, 138
134, 151, 164, 146
147, 141, 148, 180
149, 158, 141, 154
148, 135, 149, 156
158, 146, 161, 150
128, 142, 138, 142
141, 126, 144, 160
134, 140, 152, 152
145, 145, 147, 152
136, 151, 143, 139
138, 136, 152, 130
128, 141, 116, 136
140, 147, 156, 160
152, 143, 139, 129
144, 152, 146, 159
148, 154, 144, 138
138, 146, 155, 143
141, 137, 139, 146
145, 139, 137, 148
135, 140, 134, 137
154, 138, 140, 147
134, 134, 137, 146
153, 144, 158, 128
120, 140, 138, 125
130, 139, 119, 134
142, 149, 148, 126
130, 142, 139, 146
135, 141, 144, 161
144, 133, 128, 131
149, 139, 133, 135
137, 147, 142, 139
148, 144, 141, 128
140, 123, 113, 119
118, 121, 128, 135
141, 151, 127, 145
135, 136, 142, 144
141, 140, 131, 128
130, 130, 132, 136
149, 135, 141, 145
120, 134, 145, 119
116, 134, 135, 127
134, 138, 136, 142
139, 141, 134, 136
128, 133, 139, 146
128, 112, 127, 136
133, 121, 123, 123
127, 134, 138, 123
129, 133, 143, 133
109, 113, 114, 121
124, 130, 131, 122
105, 128, 116, 113
123, 118, 122, 115
124, 140, 127, 114
109, 112, 117, 137
133, 117, 131, 131
133, 128, 119, 111
114, 125, 121, 132
135, 114, 119, 130
129, 123, 121, 109
110, 120, 127, 110
114, 119, 118, 109
107, 111, 116, 109
107, 117, 119, 110
104, 106, 124, 123
118, 122, 118, 120
117, 118, 117, 115
112, 106, 110, 118
112, 108, 101, 95
98, 95, 104, 120
109, 104, 106, 101
97, 114, 119, 108
103, 106, 118, 107
114, 118, 101, 106
106, 109, 119, 117
110, 105, 111, 115
108, 100, 102, 107
104, 106, 107, 109
107, 109, 105, 88
88, 99, 106, 108
97, 94, 95, 97
108, 104, 105, 109
98, 93, 96, 101
104, 104, 105, 99
97, 105, 102, 98
100, 95, 99, 106
104, 105, 102, 97
96, 94, 88, 99
98, 95, 103, 99
104, 113, 105, 88
91, 95, 99, 100
94, 93, 97, 101
102, 96, 98, 100
98, 96, 97, 99
93, 91, 91, 97
94, 88, 92, 94
90, 82, 93, 93
90, 95, 85, 82
98, 94, 95, 96
91, 95, 99, 97
97, 94, 83, 91
98, 94, 87, 85
88, 95, 78, 86
94, 92, 96, 89
97, 107, 96, 89
97, 87, 89, 93
88, 80, 83, 97
93, 91, 99, 90
81, 87, 84, 84
99, 104, 93, 98
98, 84, 84, 91
83, 80, 82, 83
80, 86, 98, 96
93, 91, 90, 86
83, 81, 80, 90
83, 78, 73, 74
86, 85, 93, 89
84, 75, 84, 88
77, 73, 73, 82
83, 84, 84, 93
91, 78, 77, 84
77, 75, 86, 90
84, 74, 74, 82
95, 102, 95, 85
84, 88, 89, 91
77, 84, 83, 81
86, 81, 73, 79
80, 76, 76, 83
84, 84, 98, 89
80, 70, 67, 71
71, 77, 84, 69
77, 84, 71, 71
67, 74, 73, 80
86, 71, 78, 92
92, 80, 77, 80
72, 71, 73, 67
71, 79, 80, 76
80, 82, 89, 80
73, 70, 78, 75
74, 77, 66, 68
72, 64, 77, 79
63, 73, 71, 60
68, 65, 77, 68
78, 76, 70, 67
74, 87, 77, 62
74, 77, 73, 78
89, 71, 58, 66
83, 75, 72, 63
66, 71, 66, 68
69, 60, 70, 62
69, 76, 78, 66
69, 60, 71, 62
64, 61, 71, 69
67, 61, 62, 62
69, 63, 59, 60
63, 68, 71, 59
72, 78, 79, 70
75, 71, 62, 64
53, 57, 67, 71
67, 57, 70, 68
58, 67, 55, 61
55, 58, 69, 65
56, 62, 66, 66
61, 64, 58, 66
75, 62, 59, 68
61, 62, 58, 59
54, 66, 59, 59
78, 51, 59, 70
62, 65, 62, 63
63, 44, 64, 71
74, 74, 61, 59
58, 60, 55, 65
57, 59, 67, 60
67, 59, 62, 65
59, 63, 59, 59
58, 65, 55, 68
71, 72, 61, 63
59, 52, 60, 55
46, 55, 65, 59
50, 61, 71, 62
50, 42, 53, 59
60, 58, 62, 57
53, 57, 51, 56
65, 53, 46, 61
64, 49, 64, 63
52, 50, 60, 52
51, 48, 53, 55
55, 58, 46, 51
58, 57, 61, 64
53, 59, 56, 61
62, 62, 49, 47
48, 46, 71, 53
49, 59, 56, 50
56, 60, 52, 52
43, 57, 74, 49
60, 60, 50, 56
53, 50, 51, 57
56, 56, 60, 46
48, 47, 51, 46
59, 49, 54, 55
46, 36, 55, 63
55, 59, 52, 58
47, 63, 63, 38
57, 60, 57, 58
56, 51, 61, 49
58, 61, 65, 48
53, 51, 42, 56
59, 50, 50, 48
61, 49, 60, 59
43, 52, 57, 43
47, 61, 39, 50
50, 55, 47, 51
52, 59, 48, 49
60, 63, 62, 55
51, 46, 56, 43
53, 55, 48, 54
46, 65, 51, 48
50, 45, 59, 66
55, 42, 44, 53
49, 54, 47, 51
58, 69, 48, 51
45, 54, 47, 61
49, 58, 64, 66
45, 50, 56, 47
57, 51, 61, 60
53, 58, 61, 51
61, 63, 53, 43
54, 57, 47, 63
45, 55, 56, 51
61, 46, 58, 55
45, 55, 48, 42
50, 50, 57, 50
55, 51, 52, 59
51, 47, 38, 49
64, 47, 58, 49
59, 39, 51, 54
47, 36, 67, 42
43, 53, 58, 60
47, 51, 57, 47
52, 58, 59, 53
58, 55, 43, 57
51, 57, 51, 48
59, 48, 54, 46
62, 57, 57, 53
58, 49, 52, 57
49, 47, 52, 51
47, 61, 39, 59
62, 50, 56, 51
63, 50, 38, 56
48, 55, 53, 54
50, 50, 61, 55
55, 62, 55, 55
48, 42, 55, 51
41, 48, 47, 56
56, 54, 51, 48
42, 45, 46, 54
52, 46, 45, 52
51, 39, 53, 51
47, 38, 43, 56
50, 52, 54, 53
45, 68, 62, 58
61, 48, 58, 57
48, 43, 55, 53
53, 45, 47, 57
45, 53, 44, 51
49, 46, 48, 53
55, 62, 46, 48
47, 54, 47, 46
46, 44, 57, 57
46, 53, 45, 52
47, 46, 53, 47
51, 43, 50, 45
45, 50, 53, 46
46, 49, 52, 44
48, 45, 34, 53
56, 49, 45, 47
42, 47, 39, 38
48, 47, 50, 44
46, 49, 58, 53
47, 42, 48, 55
49, 50, 47, 46
46, 49, 49, 40
46, 53, 49, 43
44, 56, 54, 46
45, 48, 44, 48
41, 36, 44, 52
52, 38, 46, 48
54, 44, 50, 48
49, 44, 48, 38
39, 51, 56, 51
38, 40, 52, 47
49, 43, 44, 45
57, 47, 43, 56
45, 48, 47, 58
45, 52, 53, 59
55, 47, 46, 49
40, 43, 58, 52
44, 47, 43, 40
38, 49, 58, 48
50, 48, 42, 47
53, 45, 43, 43
45, 47, 48, 42
37, 42, 44, 50
58, 45, 38, 56
41, 43, 47, 51
57, 52, 42, 45
57, 48, 42, 41
43, 43, 53, 49
42, 43, 50, 46
52, 44, 41, 42
39, 41, 45, 38
44, 52, 46, 49
45, 43, 43, 44
49, 56, 45, 49
57, 45, 46, 50
39, 41, 47, 47
43, 43, 42, 46
51, 51, 42, 39
39, 45, 52, 50
52, 49, 45, 48
54, 50, 41, 47
50, 48, 51, 54
46, 43, 44, 40
43, 48, 40, 49
54, 47, 43, 44
40, 36, 39, 47
45, 44, 43, 40
44, 45, 49, 45
43, 46, 45, 50
47, 40, 41, 49
39, 46, 50, 46
45, 48, 49, 47
54, 54, 48, 49
51, 48, 50, 43
42, 58, 51, 44
39, 41, 44, 45
53, 57, 50, 49
46, 46, 41, 38
46, 48, 46, 42
43, 46, 37, 29
36, 50, 45, 42
48, 47, 48, 44
47, 40, 37, 38
40, 34, 30, 41
45, 45, 46, 42
42, 49, 51, 45
43, 47, 44, 43
43, 43, 42, 43
47, 44, 42, 43
44, 39, 47, 49
46, 42, 40, 39
40, 47, 56, 52
45, 37, 39, 39
37, 40, 40, 43
41, 44, 44, 54
58, 48, 47, 46
44, 46, 41, 34
39, 41, 40, 46
48, 42, 40, 46
44, 45, 40, 37
38, 39, 42, 46
39, 32, 39, 48
45, 37, 37, 42
41, 38, 43, 40
41, 39, 36, 39
47, 47, 40, 35
43, 53, 53, 48
44, 42, 36, 39
46, 44, 38, 38
35, 35, 37, 35
35, 37, 39, 41
46, 48, 40, 36
43, 44, 48, 46
37, 39, 42, 40
43, 45, 41, 45
48, 38, 34, 41
46, 46, 39, 35
33, 34, 42, 43
36, 35, 39, 37
34, 45, 44, 38
41, 44, 41, 34
36, 43, 43, 41
46, 49, 47, 46
42, 38, 41, 45
42, 41, 44, 44
47, 51, 48, 50
49, 43, 48, 49
42, 43, 43, 38
38, 45, 44, 35
36, 35, 41, 47
49, 52, 52, 52
38, 31, 41, 50
46, 40, 42, 45
42, 37, 35, 38
40, 42, 43, 40
47, 43, 36, 42
47, 46, 39, 35
41, 41, 29, 25
38, 46, 45, 38
35, 40, 43, 45
44, 38, 37, 43
40, 39, 43, 44
42, 43, 41, 37
40, 45, 43, 35
34, 37, 42, 47
45, 39, 33, 42
53, 48, 42, 43
43, 37, 39, 44
42, 38, 36, 40
39, 30, 38, 43
45, 50, 41, 37
35, 32, 38, 49
52, 44, 44, 40
38, 41, 38, 36
40, 43, 44, 40
36, 42, 41, 38
42, 45, 43, 42
48, 42, 40, 39
41, 43, 44, 39
49, 55, 44, 34
41, 46, 40, 41
43, 41, 37, 42
41, 40, 42, 38
35, 42, 49, 41
47, 51, 43, 47
45, 39, 36, 44
41, 35, 37, 44
48, 45, 39, 33
38, 47, 42, 46
44, 40, 41, 45
46, 39, 37, 42
39, 38, 40, 43
41, 40, 35, 36
46, 44, 39, 42
41, 38, 39, 38
39, 42, 39, 36
40, 42, 40, 45
46, 43, 40, 41
41, 40, 41, 42
38, 37, 40, 39
39, 33, 35, 37
37, 40, 43, 41
37, 36, 34, 42
50, 48, 42, 42
46, 44, 46, 43
40, 43, 39, 38
37, 46, 46, 38
40, 44, 45, 41
41, 37, 35, 45
38, 35, 36, 32
38, 41, 39, 40
48, 52, 50, 50
46, 46, 43, 39
41, 32, 32, 40
41, 40, 35, 34
39, 37, 43, 44
43, 39, 32, 32
42, 45, 46, 40
38, 38, 36, 39
47, 43, 43, 42
35, 35, 38, 40
36, 35, 44, 40
37, 36, 42, 41
34, 37, 42, 48
45, 37, 42, 50
47, 39, 42, 41
43, 41, 37, 35
37, 40, 35, 33
42, 47, 45, 39
48, 45, 33, 34
39, 40, 43, 43
45, 49, 43, 36
38, 45, 43, 51
50, 40, 43, 46
42, 38, 38, 45
43, 36, 40, 43
40, 36, 43, 46
42, 34, 41, 39
43, 46, 35, 38
34, 30, 31, 38
43, 46, 38, 38
46, 46, 52, 53
44, 42, 44, 34
36, 38, 43, 48
56, 56, 39, 46
53, 46, 38, 43
44, 36, 35, 38
35, 43, 53, 47
39, 36, 37, 41
38, 39, 34, 31
38, 37, 39, 45
33, 37, 34, 40
47, 36, 42, 38
39, 36, 34, 43
38, 39, 41, 45
42, 39, 37, 46
43, 37, 45, 53
49, 37, 37, 40
42, 47, 42, 42
41, 47, 44, 46
42, 38, 36, 35
40, 42, 43, 43
37, 39, 37, 34
42, 39, 38, 42
35, 31, 40, 44
41, 39, 41, 38
45, 47, 47, 37
39, 48, 48, 37
44, 43, 35, 38
40, 42, 45, 39
36, 41, 40, 37
39, 47, 42, 32
33, 46, 44, 30
32, 45, 45, 41
40, 46, 45, 46
44, 36, 34, 34
44, 44, 37, 38
38, 42, 37, 36
42, 31, 40, 41
44, 45, 40, 37
37, 34, 43, 39
39, 32, 36, 37
36, 38, 39, 32
25, 30, 42, 40
40, 33, 37, 42
37, 36, 35, 43
42, 51, 38, 41
45, 40, 35, 39
33, 34, 35, 35
36, 41, 43, 40
43, 46, 50, 46
37, 35, 44, 38
37, 39, 35, 41
35, 42, 39, 39
38, 39, 35, 35
34, 30, 34, 37
39, 39, 42, 33
39, 37, 36, 40
42, 34, 39, 38
42, 48, 40, 35
42, 38, 37, 37
38, 42, 39, 42
47, 41, 27, 31
33, 33, 38, 37
45, 44, 43, 34
40, 33, 44, 36
38, 43, 33, 25
39, 41, 38, 40
42, 36, 38, 44
42, 39, 36, 43
42, 33, 36, 41
41, 34, 36, 40
36, 41, 53, 49
35, 30, 28, 45
37, 34, 35, 37
40, 45, 30, 38
45, 38, 38, 44
42, 34, 40, 43
26, 37, 39, 33
41, 29, 40, 35
42, 33, 36, 39
35, 43, 38, 38
33, 33, 37, 46
45, 47, 47, 45
43, 31, 29, 39
42, 36, 42, 41
32, 32, 28, 33
47, 33, 34, 40
25, 29, 36, 47
45, 37, 35, 37
33, 39, 42, 32
27, 26, 37, 45
36, 51, 25, 38
46, 26, 38, 23
40, 40, 42, 40
24, 31, 46, 39
33, 29, 47, 27
39, 34, 34, 38
36, 42, 43, 39
44, 38, 31, 40
26, 29, 38, 34
35, 35, 44, 29
35, 37, 28, 27
46, 34, 34, 33
37, 29, 43, 41
27, 41, 39, 36
42, 30, 35, 31
32, 38, 30, 38
23, 22, 22, 22
*END

*EOF
