2.0100 84.0000 1.0000
2.0300 86.0000 1.0000
2.0500 85.0000 1.0000
2.0700 84.0000 1.0000
2.0900 79.0000 1.0000
2.1100 87.0000 1.0000
2.1300 83.0000 1.0000
2.1500 64.0000 1.0000
2.1700 73.0000 1.0000
2.1900 78.0000 1.0000
2.2100 79.0000 1.0000
2.2300 82.0000 1.0000
2.2500 81.0000 1.0000
2.2700 86.0000 1.0000
2.2900 81.0000 1.0000
2.3100 76.0000 1.0000
2.3300 78.0000 1.0000
2.3500 70.0000 1.0000
2.3700 82.0000 1.0000
2.3900 85.0000 1.0000
2.4100 83.0000 1.0000
2.4300 87.0000 1.0000
2.4500 84.0000 1.0000
2.4700 75.0000 1.0000
2.4900 75.0000 1.0000
2.5100 75.0000 1.0000
2.5300 74.0000 1.0000
2.5500 75.0000 1.0000
2.5700 75.0000 1.0000
2.5900 70.0000 1.0000
2.6100 67.0000 1.0000
2.6300 71.0000 1.0000
2.6500 83.0000 1.0000
2.6700 78.0000 1.0000
2.6900 65.0000 1.0000
2.7100 66.0000 1.0000
2.7300 65.0000 1.0000
2.7500 74.0000 1.0000
2.7700 71.0000 1.0000
2.7900 62.0000 1.0000
2.8100 54.0000 1.0000
2.8300 59.0000 1.0000
2.8500 61.0000 1.0000
2.8700 60.0000 1.0000
2.8900 57.0000 1.0000
2.9100 54.0000 1.0000
2.9300 56.0000 1.0000
2.9500 58.0000 1.0000
2.9700 57.0000 1.0000
2.9900 55.0000 1.0000
3.0100 47.0000 1.0000
3.0300 51.0000 1.0000
3.0500 51.0000 1.0000
3.0700 60.0000 1.0000
3.0900 55.0000 1.0000
3.1100 49.0000 1.0000
3.1300 44.0000 1.0000
3.1500 47.0000 1.0000
3.1700 55.0000 1.0000
3.1900 54.0000 1.0000
3.2100 51.0000 1.0000
3.2300 52.0000 1.0000
3.2500 56.0000 1.0000
3.2700 56.0000 1.0000
3.2900 50.0000 1.0000
3.3100 49.0000 1.0000
3.3300 52.0000 1.0000
3.3500 55.0000 1.0000
3.3700 53.0000 1.0000
3.3900 51.0000 1.0000
3.4100 47.0000 1.0000
3.4300 54.0000 1.0000
3.4500 62.0000 1.0000
3.4700 57.0000 1.0000
3.4900 51.0000 1.0000
3.5100 55.0000 1.0000
3.5300 54.0000 1.0000
3.5500 50.0000 1.0000
3.5700 42.0000 1.0000
3.5900 49.0000 1.0000
3.6100 63.0000 1.0000
3.6300 65.0000 1.0000
3.6500 62.0000 1.0000
3.6700 58.0000 1.0000
3.6900 63.0000 1.0000
3.7100 53.0000 1.0000
3.7300 51.0000 1.0000
3.7500 56.0000 1.0000
3.7700 55.0000 1.0000
3.7900 64.0000 1.0000
3.8100 57.0000 1.0000
3.8300 53.0000 1.0000
3.8500 56.0000 1.0000
3.8700 60.0000 1.0000
3.8900 65.0000 1.0000
3.9100 64.0000 1.0000
3.9300 58.0000 1.0000
3.9500 52.0000 1.0000
3.9700 59.0000 1.0000
3.9900 53.0000 1.0000
4.0100 47.0000 1.0000
4.0300 57.0000 1.0000
4.0500 67.0000 1.0000
4.0700 64.0000 1.0000
4.0900 61.0000 1.0000
4.1100 62.0000 1.0000
4.1300 61.0000 1.0000
4.1500 53.0000 1.0000
4.1700 49.0000 1.0000
4.1900 62.0000 1.0000
4.2100 69.0000 1.0000
4.2300 71.0000 1.0000
4.2500 68.0000 1.0000
4.2700 60.0000 1.0000
4.2900 56.0000 1.0000
4.3100 59.0000 1.0000
4.3300 63.0000 1.0000
4.3500 64.0000 1.0000
4.3700 59.0000 1.0000
4.3900 60.0000 1.0000
4.4100 59.0000 1.0000
4.4300 62.0000 1.0000
4.4500 61.0000 1.0000
4.4700 59.0000 1.0000
4.4900 63.0000 1.0000
4.5100 60.0000 1.0000
4.5300 59.0000 1.0000
4.5500 62.0000 1.0000
4.5700 65.0000 1.0000
4.5900 68.0000 1.0000
4.6100 64.0000 1.0000
4.6300 59.0000 1.0000
4.6500 74.0000 1.0000
4.6700 77.0000 1.0000
4.6900 72.0000 1.0000
4.7100 67.0000 1.0000
4.7300 70.0000 1.0000
4.7500 76.0000 1.0000
4.7700 77.0000 1.0000
4.7900 66.0000 1.0000
4.8100 68.0000 1.0000
4.8300 82.0000 1.0000
4.8500 80.0000 1.0000
4.8700 86.0000 1.0000
4.8900 84.0000 1.0000
4.9100 71.0000 1.0000
4.9300 72.0000 1.0000
4.9500 80.0000 1.0000
4.9700 79.0000 1.0000
4.9900 69.0000 1.0000
5.0100 78.0000 1.0000
5.0300 87.0000 1.0000
5.0500 87.0000 1.0000
5.0700 84.0000 1.0000
5.0900 74.0000 1.0000
5.1100 69.0000 1.0000
5.1300 75.0000 1.0000
5.1500 82.0000 1.0000
5.1700 85.0000 1.0000
5.1900 72.0000 1.0000
5.2100 68.0000 1.0000
5.2300 75.0000 1.0000
5.2500 82.0000 1.0000
5.2700 80.0000 1.0000
5.2900 82.0000 1.0000
5.3100 84.0000 1.0000
5.3300 76.0000 1.0000
5.3500 72.0000 1.0000
5.3700 72.0000 1.0000
5.3900 76.0000 1.0000
5.4100 85.0000 1.0000
5.4300 79.0000 1.0000
5.4500 71.0000 1.0000
5.4700 81.0000 1.0000
5.4900 87.0000 1.0000
5.5100 89.0000 1.0000
5.5300 92.0000 1.0000
5.5500 75.0000 1.0000
5.5700 78.0000 1.0000
5.5900 90.0000 1.0000
5.6100 92.0000 1.0000
5.6300 89.0000 1.0000
5.6500 87.0000 1.0000
5.6700 80.0000 1.0000
5.6900 82.0000 1.0000
5.7100 89.0000 1.0000
5.7300 93.0000 1.0000
5.7500 91.0000 1.0000
5.7700 74.0000 1.0000
5.7900 72.0000 1.0000
5.8100 85.0000 1.0000
5.8300 90.0000 1.0000
5.8500 87.0000 1.0000
5.8700 88.0000 1.0000
5.8900 90.0000 1.0000
5.9100 83.0000 1.0000
5.9300 79.0000 1.0000
5.9500 87.0000 1.0000
5.9700 91.0000 1.0000
5.9900 90.0000 1.0000
6.0100 98.0000 1.0000
6.0300 98.0000 1.0000
6.0500 90.0000 1.0000
6.0700 88.0000 1.0000
6.0900 82.0000 1.0000
6.1100 81.0000 1.0000
6.1300 83.0000 1.0000
6.1500 93.0000 1.0000
6.1700 99.0000 1.0000
6.1900 97.0000 1.0000
6.2100 92.0000 1.0000
6.2300 85.0000 1.0000
6.2500 85.0000 1.0000
6.2700 89.0000 1.0000
6.2900 98.0000 1.0000
6.3100 106.0000 1.0000
6.3300 103.0000 1.0000
6.3500 102.0000 1.0000
6.3700 108.0000 1.0000
6.3900 104.0000 1.0000
6.4100 105.0000 1.0000
6.4300 104.0000 1.0000
6.4500 99.0000 1.0000
6.4700 103.0000 1.0000
6.4900 105.0000 1.0000
6.5100 103.0000 1.0000
6.5300 97.0000 1.0000
6.5500 85.0000 1.0000
6.5700 92.0000 1.0000
6.5900 107.0000 1.0000
6.6100 103.0000 1.0000
6.6300 105.0000 1.0000
6.6500 109.0000 1.0000
6.6700 97.0000 1.0000
6.6900 96.0000 1.0000
6.7100 101.0000 1.0000
6.7300 104.0000 1.0000
6.7500 112.0000 1.0000
6.7700 115.0000 1.0000
6.7900 114.0000 1.0000
6.8100 105.0000 1.0000
6.8300 109.0000 1.0000
6.8500 111.0000 1.0000
6.8700 115.0000 1.0000
6.8900 125.0000 1.0000
6.9100 112.0000 1.0000
6.9300 110.0000 1.0000
6.9500 115.0000 1.0000
6.9700 116.0000 1.0000
6.9900 112.0000 1.0000
7.0100 113.0000 1.0000
7.0300 120.0000 1.0000
7.0500 121.0000 1.0000
7.0700 113.0000 1.0000
7.0900 109.0000 1.0000
7.1100 116.0000 1.0000
7.1300 116.0000 1.0000
7.1500 120.0000 1.0000
7.1700 123.0000 1.0000
7.1900 125.0000 1.0000
7.2100 123.0000 1.0000
7.2300 124.0000 1.0000
7.2500 116.0000 1.0000
7.2700 109.0000 1.0000
7.2900 123.0000 1.0000
7.3100 133.0000 1.0000
7.3300 132.0000 1.0000
7.3500 133.0000 1.0000
7.3700 134.0000 1.0000
7.3900 128.0000 1.0000
7.4100 136.0000 1.0000
7.4300 135.0000 1.0000
7.4500 125.0000 1.0000
7.4700 120.0000 1.0000
7.4900 121.0000 1.0000
7.5100 130.0000 1.0000
7.5300 126.0000 1.0000
7.5500 125.0000 1.0000
7.5700 127.0000 1.0000
7.5900 121.0000 1.0000
7.6100 125.0000 1.0000
7.6300 127.0000 1.0000
7.6500 128.0000 1.0000
7.6700 135.0000 1.0000
7.6900 136.0000 1.0000
7.7100 133.0000 1.0000
7.7300 133.0000 1.0000
7.7500 130.0000 1.0000
7.7700 129.0000 1.0000
7.7900 134.0000 1.0000
7.8100 134.0000 1.0000
7.8300 121.0000 1.0000
7.8500 128.0000 1.0000
7.8700 137.0000 1.0000
7.8900 125.0000 1.0000
7.9100 139.0000 1.0000
7.9300 146.0000 1.0000
7.9500 144.0000 1.0000
7.9700 150.0000 1.0000
7.9900 142.0000 1.0000
8.0100 130.0000 1.0000
8.0300 139.0000 1.0000
8.0500 151.0000 1.0000
8.0700 135.0000 1.0000
8.0900 133.0000 1.0000
8.1100 144.0000 1.0000
8.1300 143.0000 1.0000
8.1500 141.0000 1.0000
8.1700 138.0000 1.0000
8.1900 152.0000 1.0000
8.2100 151.0000 1.0000
8.2300 145.0000 1.0000
8.2500 159.0000 1.0000
8.2700 154.0000 1.0000
8.2900 144.0000 1.0000
8.3100 140.0000 1.0000
8.3300 138.0000 1.0000
8.3500 141.0000 1.0000
8.3700 130.0000 1.0000
8.3900 127.0000 1.0000
8.4100 130.0000 1.0000
8.4300 125.0000 1.0000
8.4500 138.0000 1.0000
8.4700 143.0000 1.0000
8.4900 131.0000 1.0000
8.5100 136.0000 1.0000
8.5300 138.0000 1.0000
8.5500 125.0000 1.0000
8.5700 123.0000 1.0000
8.5900 124.0000 1.0000
8.6100 120.0000 1.0000
8.6300 138.0000 1.0000
8.6500 146.0000 1.0000
8.6700 142.0000 1.0000
8.6900 132.0000 1.0000
8.7100 131.0000 1.0000
8.7300 140.0000 1.0000
8.7500 143.0000 1.0000
8.7700 136.0000 1.0000
8.7900 133.0000 1.0000
8.8100 124.0000 1.0000
8.8300 125.0000 1.0000
8.8500 131.0000 1.0000
8.8700 127.0000 1.0000
8.8900 126.0000 1.0000
8.9100 138.0000 1.0000
8.9300 127.0000 1.0000
8.9500 117.0000 1.0000
8.9700 125.0000 1.0000
8.9900 124.0000 1.0000
9.0100 116.0000 1.0000
9.0300 129.0000 1.0000
9.0500 139.0000 1.0000
9.0700 143.0000 1.0000
9.0900 148.0000 1.0000
9.1100 131.0000 1.0000
9.1300 121.0000 1.0000
9.1500 124.0000 1.0000
9.1700 115.0000 1.0000
9.1900 121.0000 1.0000
9.2100 136.0000 1.0000
9.2300 140.0000 1.0000
9.2500 140.0000 1.0000
9.2700 129.0000 1.0000
9.2900 128.0000 1.0000
9.3100 134.0000 1.0000
9.3300 130.0000 1.0000
9.3500 131.0000 1.0000
9.3700 140.0000 1.0000
9.3900 143.0000 1.0000
9.4100 144.0000 1.0000
9.4300 153.0000 1.0000
9.4500 151.0000 1.0000
9.4700 140.0000 1.0000
9.4900 127.0000 1.0000
9.5100 128.0000 1.0000
9.5300 142.0000 1.0000
9.5500 144.0000 1.0000
9.5700 137.0000 1.0000
9.5900 131.0000 1.0000
9.6100 139.0000 1.0000
9.6300 136.0000 1.0000
9.6500 125.0000 1.0000
9.6700 143.0000 1.0000
9.6900 151.0000 1.0000
9.7100 149.0000 1.0000
9.7300 145.0000 1.0000
9.7500 131.0000 1.0000
9.7700 146.0000 1.0000
9.7900 144.0000 1.0000
9.8100 139.0000 1.0000
9.8300 135.0000 1.0000
9.8500 142.0000 1.0000
9.8700 147.0000 1.0000
9.8900 145.0000 1.0000
9.9100 134.0000 1.0000
9.9300 121.0000 1.0000
9.9500 137.0000 1.0000
9.9700 145.0000 1.0000
9.9900 137.0000 1.0000
10.0100 124.0000 1.0000
10.0300 129.0000 1.0000
10.0500 140.0000 1.0000
10.0700 139.0000 1.0000
10.0900 135.0000 1.0000
10.1100 134.0000 1.0000
10.1300 133.0000 1.0000
10.1500 133.0000 1.0000
10.1700 138.0000 1.0000
10.1900 143.0000 1.0000
10.2100 145.0000 1.0000
10.2300 139.0000 1.0000
10.2500 139.0000 1.0000
10.2700 131.0000 1.0000
10.2900 129.0000 1.0000
10.3100 142.0000 1.0000
10.3300 142.0000 1.0000
10.3500 133.0000 1.0000
10.3700 153.0000 1.0000
10.3900 174.0000 1.0000
10.4100 153.0000 1.0000
10.4300 152.0000 1.0000
10.4500 144.0000 1.0000
10.4700 148.0000 1.0000
10.4900 156.0000 1.0000
10.5100 141.0000 1.0000
10.5300 133.0000 1.0000
10.5500 150.0000 1.0000
10.5700 155.0000 1.0000
10.5900 148.0000 1.0000
10.6100 146.0000 1.0000
10.6300 147.0000 1.0000
10.6500 145.0000 1.0000
10.6700 135.0000 1.0000
10.6900 145.0000 1.0000
10.7100 148.0000 1.0000
10.7300 133.0000 1.0000
10.7500 157.0000 1.0000
10.7700 153.0000 1.0000
10.7900 141.0000 1.0000
10.8100 148.0000 1.0000
10.8300 150.0000 1.0000
10.8500 154.0000 1.0000
10.8700 142.0000 1.0000
10.8900 147.0000 1.0000
10.9100 159.0000 1.0000
10.9300 148.0000 1.0000
10.9500 132.0000 1.0000
10.9700 127.0000 1.0000
10.9900 139.0000 1.0000
11.0100 162.0000 1.0000
11.0300 173.0000 1.0000
11.0500 167.0000 1.0000
11.0700 152.0000 1.0000
11.0900 145.0000 1.0000
11.1100 152.0000 1.0000
11.1300 166.0000 1.0000
11.1500 170.0000 1.0000
11.1700 146.0000 1.0000
11.1900 159.0000 1.0000
11.2100 153.0000 1.0000
11.2300 151.0000 1.0000
11.2500 160.0000 1.0000
11.2700 159.0000 1.0000
11.2900 155.0000 1.0000
11.3100 142.0000 1.0000
11.3300 149.0000 1.0000
11.3500 172.0000 1.0000
11.3700 173.0000 1.0000
11.3900 165.0000 1.0000
11.4100 158.0000 1.0000
11.4300 150.0000 1.0000
11.4500 157.0000 1.0000
11.4700 160.0000 1.0000
11.4900 158.0000 1.0000
11.5100 155.0000 1.0000
11.5300 155.0000 1.0000
11.5500 158.0000 1.0000
11.5700 160.0000 1.0000
11.5900 162.0000 1.0000
11.6100 171.0000 1.0000
11.6300 169.0000 1.0000
11.6500 174.0000 1.0000
11.6700 159.0000 1.0000
11.6900 164.0000 1.0000
11.7100 171.0000 1.0000
11.7300 176.0000 1.0000
11.7500 162.0000 1.0000
11.7700 166.0000 1.0000
11.7900 169.0000 1.0000
11.8100 167.0000 1.0000
11.8300 164.0000 1.0000
11.8500 174.0000 1.0000
11.8700 178.0000 1.0000
11.8900 169.0000 1.0000
11.9100 160.0000 1.0000
11.9300 172.0000 1.0000
11.9500 172.0000 1.0000
11.9700 163.0000 1.0000
11.9900 156.0000 1.0000
12.0100 144.0000 1.0000
12.0300 146.0000 1.0000
12.0500 165.0000 1.0000
12.0700 167.0000 1.0000
12.0900 161.0000 1.0000
12.1100 172.0000 1.0000
12.1300 169.0000 1.0000
12.1500 163.0000 1.0000
12.1700 155.0000 1.0000
12.1900 158.0000 1.0000
12.2100 163.0000 1.0000
12.2300 175.0000 1.0000
12.2500 172.0000 1.0000
12.2700 184.0000 1.0000
12.2900 176.0000 1.0000
12.3100 156.0000 1.0000
12.3300 148.0000 1.0000
12.3500 159.0000 1.0000
12.3700 175.0000 1.0000
12.3900 180.0000 1.0000
12.4100 165.0000 1.0000
12.4300 152.0000 1.0000
12.4500 151.0000 1.0000
12.4700 163.0000 1.0000
12.4900 163.0000 1.0000
12.5100 176.0000 1.0000
12.5300 181.0000 1.0000
12.5500 178.0000 1.0000
12.5700 171.0000 1.0000
12.5900 163.0000 1.0000
12.6100 175.0000 1.0000
12.6300 188.0000 1.0000
12.6500 186.0000 1.0000
12.6700 183.0000 1.0000
12.6900 176.0000 1.0000
12.7100 177.0000 1.0000
12.7300 187.0000 1.0000
12.7500 172.0000 1.0000
12.7700 169.0000 1.0000
12.7900 171.0000 1.0000
12.8100 170.0000 1.0000
12.8300 165.0000 1.0000
12.8500 166.0000 1.0000
12.8700 176.0000 1.0000
12.8900 176.0000 1.0000
12.9100 170.0000 1.0000
12.9300 176.0000 1.0000
12.9500 184.0000 1.0000
12.9700 177.0000 1.0000
12.9900 186.0000 1.0000
13.0100 195.0000 1.0000
13.0300 185.0000 1.0000
13.0500 175.0000 1.0000
13.0700 170.0000 1.0000
13.0900 184.0000 1.0000
13.1100 167.0000 1.0000
13.1300 162.0000 1.0000
13.1500 161.0000 1.0000
13.1700 170.0000 1.0000
13.1900 174.0000 1.0000
13.2100 179.0000 1.0000
13.2300 182.0000 1.0000
13.2500 184.0000 1.0000
13.2700 189.0000 1.0000
13.2900 192.0000 1.0000
13.3100 189.0000 1.0000
13.3300 188.0000 1.0000
13.3500 183.0000 1.0000
13.3700 186.0000 1.0000
13.3900 190.0000 1.0000
13.4100 186.0000 1.0000
13.4300 180.0000 1.0000
13.4500 165.0000 1.0000
13.4700 175.0000 1.0000
13.4900 170.0000 1.0000
13.5100 173.0000 1.0000
13.5300 181.0000 1.0000
13.5500 175.0000 1.0000
13.5700 184.0000 1.0000
13.5900 190.0000 1.0000
13.6100 184.0000 1.0000
13.6300 169.0000 1.0000
13.6500 187.0000 1.0000
13.6700 189.0000 1.0000
13.6900 182.0000 1.0000
13.7100 192.0000 1.0000
13.7300 192.0000 1.0000
13.7500 189.0000 1.0000
13.7700 165.0000 1.0000
13.7900 175.0000 1.0000
13.8100 181.0000 1.0000
13.8300 178.0000 1.0000
13.8500 186.0000 1.0000
13.8700 184.0000 1.0000
13.8900 182.0000 1.0000
13.9100 176.0000 1.0000
13.9300 190.0000 1.0000
13.9500 189.0000 1.0000
13.9700 181.0000 1.0000
13.9900 185.0000 1.0000
14.0100 193.0000 1.0000
14.0300 185.0000 1.0000
14.0500 200.0000 1.0000
14.0700 172.0000 1.0000
14.0900 186.0000 1.0000
14.1100 183.0000 1.0000
14.1300 185.0000 1.0000
14.1500 190.0000 1.0000
14.1700 188.0000 1.0000
14.1900 184.0000 1.0000
14.2100 213.0000 1.0000
14.2300 192.0000 1.0000
14.2500 178.0000 1.0000
14.2700 194.0000 1.0000
14.2900 187.0000 1.0000
14.3100 192.0000 1.0000
14.3300 176.0000 1.0000
14.3500 184.0000 1.0000
14.3700 202.0000 1.0000
14.3900 184.0000 1.0000
14.4100 185.0000 1.0000
14.4300 198.0000 1.0000
14.4500 188.0000 1.0000
14.4700 197.0000 1.0000
14.4900 182.0000 1.0000
14.5100 194.0000 1.0000
14.5300 204.0000 1.0000
14.5500 191.0000 1.0000
14.5700 181.0000 1.0000
14.5900 179.0000 1.0000
14.6100 191.0000 1.0000
14.6300 184.0000 1.0000
14.6500 204.0000 1.0000
14.6700 196.0000 1.0000
14.6900 182.0000 1.0000
14.7100 171.0000 1.0000
14.7300 180.0000 1.0000
14.7500 171.0000 1.0000
14.7700 188.0000 1.0000
14.7900 176.0000 1.0000
14.8100 193.0000 1.0000
14.8300 182.0000 1.0000
14.8500 210.0000 1.0000
14.8700 207.0000 1.0000
14.8900 200.0000 1.0000
14.9100 176.0000 1.0000
14.9300 176.0000 1.0000
14.9500 208.0000 1.0000
14.9700 190.0000 1.0000
14.9900 196.0000 1.0000
15.0100 205.0000 1.0000
15.0300 201.0000 1.0000
15.0500 210.0000 1.0000
15.0700 199.0000 1.0000
15.0900 180.0000 1.0000
15.1100 192.0000 1.0000
15.1300 182.0000 1.0000
15.1500 176.0000 1.0000
15.1700 208.0000 1.0000
15.1900 194.0000 1.0000
15.2100 196.0000 1.0000
15.2300 181.0000 1.0000
15.2500 176.0000 1.0000
15.2700 203.0000 1.0000
15.2900 200.0000 1.0000
15.3100 201.0000 1.0000
15.3300 212.0000 1.0000
15.3500 177.0000 1.0000
15.3700 204.0000 1.0000
15.3900 205.0000 1.0000
15.4100 197.0000 1.0000
15.4300 188.0000 1.0000
15.4500 209.0000 1.0000
15.4700 208.0000 1.0000
15.4900 201.0000 1.0000
15.5100 201.0000 1.0000
15.5300 195.0000 1.0000
15.5500 213.0000 1.0000
15.5700 181.0000 1.0000
15.5900 196.0000 1.0000
15.6100 200.0000 1.0000
15.6300 204.0000 1.0000
15.6500 202.0000 1.0000
15.6700 216.0000 1.0000
15.6900 174.0000 1.0000
15.7100 176.0000 1.0000
15.7300 203.0000 1.0000
15.7500 194.0000 1.0000
15.7700 213.0000 1.0000
15.7900 191.0000 1.0000
15.8100 215.0000 1.0000
15.8300 185.0000 1.0000
15.8500 197.0000 1.0000
15.8700 211.0000 1.0000
15.8900 219.0000 1.0000
15.9100 210.0000 1.0000
15.9300 203.0000 1.0000
15.9500 205.0000 1.0000
15.9700 198.0000 1.0000
15.9900 186.0000 1.0000
16.0100 183.0000 1.0000
16.0300 184.0000 1.0000
16.0500 207.0000 1.0000
16.0700 197.0000 1.0000
16.0900 205.0000 1.0000
16.1100 207.0000 1.0000
16.1300 207.0000 1.0000
16.1500 200.0000 1.0000
16.1700 209.0000 1.0000
16.1900 239.0000 1.0000
16.2100 211.0000 1.0000
16.2300 193.0000 1.0000
16.2500 205.0000 1.0000
16.2700 212.0000 1.0000
16.2900 201.0000 1.0000
16.3100 207.0000 1.0000
16.3300 225.0000 1.0000
16.3500 211.0000 1.0000
16.3700 207.0000 1.0000
16.3900 214.0000 1.0000
16.4100 223.0000 1.0000
16.4300 221.0000 1.0000
16.4500 208.0000 1.0000
16.4700 188.0000 1.0000
16.4900 222.0000 1.0000
16.5100 205.0000 1.0000
16.5300 204.0000 1.0000
16.5500 221.0000 1.0000
16.5700 207.0000 1.0000
16.5900 234.0000 1.0000
16.6100 203.0000 1.0000
16.6300 246.0000 1.0000
16.6500 247.0000 1.0000
16.6700 228.0000 1.0000
16.6900 207.0000 1.0000
16.7100 212.0000 1.0000
16.7300 215.0000 1.0000
16.7500 210.0000 1.0000
16.7700 207.0000 1.0000
16.7900 215.0000 1.0000
16.8100 233.0000 1.0000
16.8300 216.0000 1.0000
16.8500 230.0000 1.0000
16.8700 215.0000 1.0000
16.8900 202.0000 1.0000
16.9100 197.0000 1.0000
16.9300 204.0000 1.0000
16.9500 225.0000 1.0000
16.9700 236.0000 1.0000
16.9900 215.0000 1.0000
17.0100 218.0000 1.0000
17.0300 223.0000 1.0000
17.0500 239.0000 1.0000
17.0700 229.0000 1.0000
17.0900 254.0000 1.0000
17.1100 264.0000 1.0000
17.1300 292.0000 1.0000
17.1500 333.0000 1.0000
17.1700 334.0000 1.0000
17.1900 390.0000 1.0000
17.2100 427.0000 1.0000
17.2300 467.0000 1.0000
17.2500 526.0000 1.0000
17.2700 579.0000 1.0000
17.2900 651.0000 1.0000
17.3100 559.0000 1.0000
17.3300 497.0000 1.0000
17.3500 428.0000 1.0000
17.3700 347.0000 1.0000
17.3900 258.0000 1.0000
17.4100 255.0000 1.0000
17.4300 241.0000 1.0000
17.4500 233.0000 1.0000
17.4700 217.0000 1.0000
17.4900 241.0000 1.0000
17.5100 230.0000 1.0000
17.5300 217.0000 1.0000
17.5500 232.0000 1.0000
17.5700 244.0000 1.0000
17.5900 252.0000 1.0000
17.6100 230.0000 1.0000
17.6300 214.0000 1.0000
17.6500 231.0000 1.0000
17.6700 220.0000 1.0000
17.6900 244.0000 1.0000
17.7100 200.0000 1.0000
17.7300 225.0000 1.0000
17.7500 212.0000 1.0000
17.7700 220.0000 1.0000
17.7900 212.0000 1.0000
17.8100 228.0000 1.0000
17.8300 212.0000 1.0000
17.8500 211.0000 1.0000
17.8700 200.0000 1.0000
17.8900 223.0000 1.0000
17.9100 214.0000 1.0000
17.9300 221.0000 1.0000
17.9500 198.0000 1.0000
17.9700 252.0000 1.0000
17.9900 216.0000 1.0000
18.0100 205.0000 1.0000
18.0300 221.0000 1.0000
18.0500 215.0000 1.0000
18.0700 211.0000 1.0000
18.0900 202.0000 1.0000
18.1100 209.0000 1.0000
18.1300 207.0000 1.0000
18.1500 209.0000 1.0000
18.1700 216.0000 1.0000
18.1900 185.0000 1.0000
18.2100 236.0000 1.0000
18.2300 237.0000 1.0000
18.2500 237.0000 1.0000
18.2700 197.0000 1.0000
18.2900 230.0000 1.0000
18.3100 234.0000 1.0000
18.3300 214.0000 1.0000
18.3500 204.0000 1.0000
18.3700 219.0000 1.0000
18.3900 241.0000 1.0000
18.4100 252.0000 1.0000
18.4300 239.0000 1.0000
18.4500 231.0000 1.0000
18.4700 233.0000 1.0000
18.4900 240.0000 1.0000
18.5100 241.0000 1.0000
18.5300 212.0000 1.0000
18.5500 226.0000 1.0000
18.5700 211.0000 1.0000
18.5900 228.0000 1.0000
18.6100 221.0000 1.0000
18.6300 185.0000 1.0000
18.6500 250.0000 1.0000
18.6700 208.0000 1.0000
18.6900 228.0000 1.0000
18.7100 230.0000 1.0000
18.7300 194.0000 1.0000
18.7500 213.0000 1.0000
18.7700 241.0000 1.0000
18.7900 210.0000 1.0000
18.8100 226.0000 1.0000
18.8300 250.0000 1.0000
18.8500 215.0000 1.0000
18.8700 223.0000 1.0000
18.8900 201.0000 1.0000
18.9100 232.0000 1.0000
18.9300 227.0000 1.0000
18.9500 235.0000 1.0000
18.9700 206.0000 1.0000
18.9900 189.0000 1.0000
19.0100 231.0000 1.0000
19.0300 248.0000 1.0000
19.0500 231.0000 1.0000
19.0700 206.0000 1.0000
19.0900 226.0000 1.0000
19.1100 216.0000 1.0000
19.1300 223.0000 1.0000
19.1500 214.0000 1.0000
19.1700 228.0000 1.0000
19.1900 223.0000 1.0000
19.2100 238.0000 1.0000
19.2300 204.0000 1.0000
19.2500 227.0000 1.0000
19.2700 239.0000 1.0000
19.2900 253.0000 1.0000
19.3100 239.0000 1.0000
19.3300 226.0000 1.0000
19.3500 223.0000 1.0000
19.3700 249.0000 1.0000
19.3900 216.0000 1.0000
19.4100 202.0000 1.0000
19.4300 228.0000 1.0000
19.4500 249.0000 1.0000
19.4700 219.0000 1.0000
19.4900 215.0000 1.0000
19.5100 213.0000 1.0000
19.5300 216.0000 1.0000
19.5500 217.0000 1.0000
19.5700 230.0000 1.0000
19.5900 236.0000 1.0000
19.6100 221.0000 1.0000
19.6300 238.0000 1.0000
19.6500 205.0000 1.0000
19.6700 213.0000 1.0000
19.6900 224.0000 1.0000
19.7100 222.0000 1.0000
19.7300 216.0000 1.0000
19.7500 211.0000 1.0000
19.7700 223.0000 1.0000
19.7900 221.0000 1.0000
19.8100 215.0000 1.0000
19.8300 233.0000 1.0000
19.8500 225.0000 1.0000
19.8700 274.0000 1.0000
19.8900 233.0000 1.0000
19.9100 202.0000 1.0000
19.9300 242.0000 1.0000
19.9500 227.0000 1.0000
19.9700 211.0000 1.0000
19.9900 233.0000 1.0000
20.0100 201.0000 1.0000
20.0300 228.0000 1.0000
20.0500 233.0000 1.0000
20.0700 235.0000 1.0000
20.0900 221.0000 1.0000
20.1100 239.0000 1.0000
20.1300 221.0000 1.0000
20.1500 224.0000 1.0000
20.1700 246.0000 1.0000
20.1900 201.0000 1.0000
20.2100 243.0000 1.0000
20.2300 223.0000 1.0000
20.2500 212.0000 1.0000
20.2700 220.0000 1.0000
20.2900 230.0000 1.0000
20.3100 227.0000 1.0000
20.3300 232.0000 1.0000
20.3500 238.0000 1.0000
20.3700 250.0000 1.0000
20.3900 249.0000 1.0000
20.4100 224.0000 1.0000
20.4300 240.0000 1.0000
20.4500 254.0000 1.0000
20.4700 248.0000 1.0000
20.4900 224.0000 1.0000
20.5100 216.0000 1.0000
20.5300 252.0000 1.0000
20.5500 269.0000 1.0000
20.5700 229.0000 1.0000
20.5900 236.0000 1.0000
20.6100 250.0000 1.0000
20.6300 229.0000 1.0000
20.6500 232.0000 1.0000
20.6700 243.0000 1.0000
20.6900 244.0000 1.0000
20.7100 215.0000 1.0000
20.7300 236.0000 1.0000
20.7500 212.0000 1.0000
20.7700 234.0000 1.0000
20.7900 239.0000 1.0000
20.8100 221.0000 1.0000
20.8300 221.0000 1.0000
20.8500 245.0000 1.0000
20.8700 237.0000 1.0000
20.8900 228.0000 1.0000
20.9100 236.0000 1.0000
20.9300 249.0000 1.0000
20.9500 197.0000 1.0000
20.9700 238.0000 1.0000
20.9900 237.0000 1.0000
21.0100 258.0000 1.0000
21.0300 216.0000 1.0000
21.0500 222.0000 1.0000
21.0700 222.0000 1.0000
21.0900 257.0000 1.0000
21.1100 228.0000 1.0000
21.1300 228.0000 1.0000
21.1500 250.0000 1.0000
21.1700 255.0000 1.0000
21.1900 221.0000 1.0000
21.2100 223.0000 1.0000
21.2300 228.0000 1.0000
21.2500 231.0000 1.0000
21.2700 235.0000 1.0000
21.2900 210.0000 1.0000
21.3100 268.0000 1.0000
21.3300 261.0000 1.0000
21.3500 233.0000 1.0000
21.3700 233.0000 1.0000
21.3900 215.0000 1.0000
21.4100 229.0000 1.0000
21.4300 246.0000 1.0000
21.4500 204.0000 1.0000
21.4700 207.0000 1.0000
21.4900 224.0000 1.0000
21.5100 213.0000 1.0000
21.5300 234.0000 1.0000
21.5500 245.0000 1.0000
21.5700 242.0000 1.0000
21.5900 206.0000 1.0000
21.6100 223.0000 1.0000
21.6300 228.0000 1.0000
21.6500 225.0000 1.0000
21.6700 204.0000 1.0000
21.6900 216.0000 1.0000
21.7100 236.0000 1.0000
21.7300 232.0000 1.0000
21.7500 227.0000 1.0000
21.7700 243.0000 1.0000
21.7900 233.0000 1.0000
21.8100 225.0000 1.0000
21.8300 233.0000 1.0000
21.8500 205.0000 1.0000
21.8700 233.0000 1.0000
21.8900 236.0000 1.0000
21.9100 221.0000 1.0000
21.9300 222.0000 1.0000
21.9500 233.0000 1.0000
21.9700 233.0000 1.0000
21.9900 223.0000 1.0000
22.0100 229.0000 1.0000
22.0300 218.0000 1.0000
22.0500 213.0000 1.0000
22.0700 214.0000 1.0000
22.0900 225.0000 1.0000
22.1100 227.0000 1.0000
22.1300 233.0000 1.0000
22.1500 221.0000 1.0000
22.1700 256.0000 1.0000
22.1900 215.0000 1.0000
22.2100 218.0000 1.0000
22.2300 233.0000 1.0000
22.2500 232.0000 1.0000
22.2700 240.0000 1.0000
22.2900 244.0000 1.0000
22.3100 247.0000 1.0000
22.3300 243.0000 1.0000
22.3500 250.0000 1.0000
22.3700 233.0000 1.0000
22.3900 251.0000 1.0000
22.4100 215.0000 1.0000
22.4300 246.0000 1.0000
22.4500 234.0000 1.0000
22.4700 269.0000 1.0000
22.4900 262.0000 1.0000
22.5100 249.0000 1.0000
22.5300 244.0000 1.0000
22.5500 261.0000 1.0000
22.5700 272.0000 1.0000
22.5900 271.0000 1.0000
22.6100 300.0000 1.0000
22.6300 358.0000 1.0000
22.6500 452.0000 1.0000
22.6700 600.0000 1.0000
22.6900 818.0000 1.0000
22.7100 1186.0000 1.0000
22.7300 1663.0000 1.0000
22.7500 1873.0000 1.0000
22.7700 1907.0000 1.0000
22.7900 1827.0000 1.0000
22.8100 1598.0000 1.0000
22.8300 1251.0000 1.0000
22.8500 930.0000 1.0000
22.8700 637.0000 1.0000
22.8900 450.0000 1.0000
22.9100 386.0000 1.0000
22.9300 305.0000 1.0000
22.9500 279.0000 1.0000
22.9700 276.0000 1.0000
22.9900 256.0000 1.0000
23.0100 245.0000 1.0000
23.0300 240.0000 1.0000
23.0500 241.0000 1.0000
23.0700 247.0000 1.0000
23.0900 227.0000 1.0000
23.1100 234.0000 1.0000
23.1300 235.0000 1.0000
23.1500 229.0000 1.0000
23.1700 230.0000 1.0000
23.1900 240.0000 1.0000
23.2100 239.0000 1.0000
23.2300 213.0000 1.0000
23.2500 226.0000 1.0000
23.2700 242.0000 1.0000
23.2900 259.0000 1.0000
23.3100 228.0000 1.0000
23.3300 251.0000 1.0000
23.3500 231.0000 1.0000
23.3700 236.0000 1.0000
23.3900 237.0000 1.0000
23.4100 233.0000 1.0000
23.4300 247.0000 1.0000
23.4500 230.0000 1.0000
23.4700 225.0000 1.0000
23.4900 231.0000 1.0000
23.5100 241.0000 1.0000
23.5300 245.0000 1.0000
23.5500 213.0000 1.0000
23.5700 215.0000 1.0000
23.5900 220.0000 1.0000
23.6100 250.0000 1.0000
23.6300 262.0000 1.0000
23.6500 280.0000 1.0000
23.6700 308.0000 1.0000
23.6900 315.0000 1.0000
23.7100 330.0000 1.0000
23.7300 346.0000 1.0000
23.7500 345.0000 1.0000
23.7700 342.0000 1.0000
23.7900 315.0000 1.0000
23.8100 307.0000 1.0000
23.8300 285.0000 1.0000
23.8500 247.0000 1.0000
23.8700 242.0000 1.0000
23.8900 251.0000 1.0000
23.9100 248.0000 1.0000
23.9300 234.0000 1.0000
23.9500 216.0000 1.0000
23.9700 222.0000 1.0000
23.9900 219.0000 1.0000
24.0100 219.0000 1.0000
24.0300 225.0000 1.0000
24.0500 251.0000 1.0000
24.0700 232.0000 1.0000
24.0900 227.0000 1.0000
24.1100 214.0000 1.0000
24.1300 211.0000 1.0000
24.1500 217.0000 1.0000
24.1700 227.0000 1.0000
24.1900 238.0000 1.0000
24.2100 229.0000 1.0000
24.2300 251.0000 1.0000
24.2500 231.0000 1.0000
24.2700 237.0000 1.0000
24.2900 232.0000 1.0000
24.3100 234.0000 1.0000
24.3300 216.0000 1.0000
24.3500 213.0000 1.0000
24.3700 213.0000 1.0000
24.3900 199.0000 1.0000
24.4100 219.0000 1.0000
24.4300 230.0000 1.0000
24.4500 228.0000 1.0000
24.4700 245.0000 1.0000
24.4900 207.0000 1.0000
24.5100 213.0000 1.0000
24.5300 219.0000 1.0000
24.5500 233.0000 1.0000
24.5700 242.0000 1.0000
24.5900 237.0000 1.0000
24.6100 224.0000 1.0000
24.6300 218.0000 1.0000
24.6500 239.0000 1.0000
24.6700 223.0000 1.0000
24.6900 211.0000 1.0000
24.7100 228.0000 1.0000
24.7300 240.0000 1.0000
24.7500 223.0000 1.0000
24.7700 211.0000 1.0000
24.7900 216.0000 1.0000
24.8100 235.0000 1.0000
24.8300 241.0000 1.0000
24.8500 231.0000 1.0000
24.8700 235.0000 1.0000
24.8900 229.0000 1.0000
24.9100 240.0000 1.0000
24.9300 241.0000 1.0000
24.9500 214.0000 1.0000
24.9700 231.0000 1.0000
24.9900 232.0000 1.0000
25.0100 211.0000 1.0000
25.0300 220.0000 1.0000
25.0500 225.0000 1.0000
25.0700 221.0000 1.0000
25.0900 224.0000 1.0000
25.1100 224.0000 1.0000
25.1300 229.0000 1.0000
25.1500 214.0000 1.0000
25.1700 221.0000 1.0000
25.1900 215.0000 1.0000
25.2100 245.0000 1.0000
25.2300 286.0000 1.0000
25.2500 303.0000 1.0000
25.2700 297.0000 1.0000
25.2900 323.0000 1.0000
25.3100 338.0000 1.0000
25.3300 331.0000 1.0000
25.3500 360.0000 1.0000
25.3700 376.0000 1.0000
25.3900 373.0000 1.0000
25.4100 359.0000 1.0000
25.4300 364.0000 1.0000
25.4500 368.0000 1.0000
25.4700 350.0000 1.0000
25.4900 356.0000 1.0000
25.5100 314.0000 1.0000
25.5300 292.0000 1.0000
25.5500 278.0000 1.0000
25.5700 263.0000 1.0000
25.5900 251.0000 1.0000
25.6100 225.0000 1.0000
25.6300 215.0000 1.0000
25.6500 241.0000 1.0000
25.6700 217.0000 1.0000
25.6900 226.0000 1.0000
25.7100 236.0000 1.0000
25.7300 228.0000 1.0000
25.7500 245.0000 1.0000
25.7700 238.0000 1.0000
25.7900 210.0000 1.0000
25.8100 215.0000 1.0000
25.8300 232.0000 1.0000
25.8500 223.0000 1.0000
25.8700 205.0000 1.0000
25.8900 218.0000 1.0000
25.9100 213.0000 1.0000
25.9300 214.0000 1.0000
25.9500 210.0000 1.0000
25.9700 214.0000 1.0000
25.9900 220.0000 1.0000
26.0100 203.0000 1.0000
26.0300 210.0000 1.0000
26.0500 213.0000 1.0000
26.0700 220.0000 1.0000
26.0900 213.0000 1.0000
26.1100 223.0000 1.0000
26.1300 211.0000 1.0000
26.1500 206.0000 1.0000
26.1700 211.0000 1.0000
26.1900 210.0000 1.0000
26.2100 204.0000 1.0000
26.2300 192.0000 1.0000
26.2500 201.0000 1.0000
26.2700 227.0000 1.0000
26.2900 216.0000 1.0000
26.3100 202.0000 1.0000
26.3300 214.0000 1.0000
26.3500 207.0000 1.0000
26.3700 218.0000 1.0000
26.3900 238.0000 1.0000
26.4100 238.0000 1.0000
26.4300 225.0000 1.0000
26.4500 227.0000 1.0000
26.4700 236.0000 1.0000
26.4900 250.0000 1.0000
26.5100 230.0000 1.0000
26.5300 218.0000 1.0000
26.5500 225.0000 1.0000
26.5700 232.0000 1.0000
26.5900 227.0000 1.0000
26.6100 226.0000 1.0000
26.6300 224.0000 1.0000
26.6500 231.0000 1.0000
26.6700 206.0000 1.0000
26.6900 232.0000 1.0000
26.7100 220.0000 1.0000
26.7300 200.0000 1.0000
26.7500 206.0000 1.0000
26.7700 193.0000 1.0000
26.7900 195.0000 1.0000
26.8100 217.0000 1.0000
26.8300 213.0000 1.0000
26.8500 217.0000 1.0000
26.8700 205.0000 1.0000
26.8900 205.0000 1.0000
26.9100 223.0000 1.0000
26.9300 230.0000 1.0000
26.9500 213.0000 1.0000
26.9700 219.0000 1.0000
26.9900 232.0000 1.0000
27.0100 227.0000 1.0000
27.0300 214.0000 1.0000
27.0500 203.0000 1.0000
27.0700 216.0000 1.0000
27.0900 215.0000 1.0000
27.1100 209.0000 1.0000
27.1300 227.0000 1.0000
27.1500 227.0000 1.0000
27.1700 209.0000 1.0000
27.1900 212.0000 1.0000
27.2100 222.0000 1.0000
27.2300 237.0000 1.0000
27.2500 210.0000 1.0000
27.2700 200.0000 1.0000
27.2900 184.0000 1.0000
27.3100 192.0000 1.0000
27.3300 213.0000 1.0000
27.3500 224.0000 1.0000
27.3700 217.0000 1.0000
27.3900 212.0000 1.0000
27.4100 198.0000 1.0000
27.4300 192.0000 1.0000
27.4500 198.0000 1.0000
27.4700 201.0000 1.0000
27.4900 210.0000 1.0000
27.5100 222.0000 1.0000
27.5300 215.0000 1.0000
27.5500 218.0000 1.0000
27.5700 210.0000 1.0000
27.5900 203.0000 1.0000
27.6100 220.0000 1.0000
27.6300 229.0000 1.0000
27.6500 220.0000 1.0000
27.6700 218.0000 1.0000
27.6900 211.0000 1.0000
27.7100 209.0000 1.0000
27.7300 217.0000 1.0000
27.7500 219.0000 1.0000
27.7700 232.0000 1.0000
27.7900 246.0000 1.0000
27.8100 219.0000 1.0000
27.8300 218.0000 1.0000
27.8500 223.0000 1.0000
27.8700 199.0000 1.0000
27.8900 219.0000 1.0000
27.9100 226.0000 1.0000
27.9300 212.0000 1.0000
27.9500 208.0000 1.0000
27.9700 191.0000 1.0000
27.9900 186.0000 1.0000
28.0100 213.0000 1.0000
28.0300 213.0000 1.0000
28.0500 210.0000 1.0000
28.0700 220.0000 1.0000
28.0900 202.0000 1.0000
28.1100 198.0000 1.0000
28.1300 212.0000 1.0000
28.1500 228.0000 1.0000
28.1700 222.0000 1.0000
28.1900 220.0000 1.0000
28.2100 224.0000 1.0000
28.2300 226.0000 1.0000
28.2500 207.0000 1.0000
28.2700 205.0000 1.0000
28.2900 205.0000 1.0000
28.3100 201.0000 1.0000
28.3300 214.0000 1.0000
28.3500 215.0000 1.0000
28.3700 204.0000 1.0000
28.3900 206.0000 1.0000
28.4100 204.0000 1.0000
28.4300 209.0000 1.0000
28.4500 209.0000 1.0000
28.4700 206.0000 1.0000
28.4900 219.0000 1.0000
28.5100 213.0000 1.0000
28.5300 192.0000 1.0000
28.5500 189.0000 1.0000
28.5700 196.0000 1.0000
28.5900 207.0000 1.0000
28.6100 204.0000 1.0000
28.6300 190.0000 1.0000
28.6500 196.0000 1.0000
28.6700 196.0000 1.0000
28.6900 220.0000 1.0000
28.7100 247.0000 1.0000
28.7300 211.0000 1.0000
28.7500 195.0000 1.0000
28.7700 211.0000 1.0000
28.7900 228.0000 1.0000
28.8100 230.0000 1.0000
28.8300 217.0000 1.0000
28.8500 221.0000 1.0000
28.8700 224.0000 1.0000
28.8900 223.0000 1.0000
28.9100 206.0000 1.0000
28.9300 209.0000 1.0000
28.9500 218.0000 1.0000
28.9700 217.0000 1.0000
28.9900 225.0000 1.0000
29.0100 212.0000 1.0000
29.0300 216.0000 1.0000
29.0500 206.0000 1.0000
29.0700 207.0000 1.0000
29.0900 226.0000 1.0000
29.1100 217.0000 1.0000
29.1300 199.0000 1.0000
29.1500 202.0000 1.0000
29.1700 213.0000 1.0000
29.1900 203.0000 1.0000
29.2100 204.0000 1.0000
29.2300 212.0000 1.0000
29.2500 223.0000 1.0000
29.2700 233.0000 1.0000
29.2900 226.0000 1.0000
29.3100 225.0000 1.0000
29.3300 211.0000 1.0000
29.3500 208.0000 1.0000
29.3700 215.0000 1.0000
29.3900 219.0000 1.0000
29.4100 227.0000 1.0000
29.4300 232.0000 1.0000
29.4500 236.0000 1.0000
29.4700 232.0000 1.0000
29.4900 239.0000 1.0000
29.5100 255.0000 1.0000
29.5300 276.0000 1.0000
29.5500 314.0000 1.0000
29.5700 338.0000 1.0000
29.5900 355.0000 1.0000
29.6100 334.0000 1.0000
29.6300 307.0000 1.0000
29.6500 320.0000 1.0000
29.6700 326.0000 1.0000
29.6900 314.0000 1.0000
29.7100 309.0000 1.0000
29.7300 312.0000 1.0000
29.7500 303.0000 1.0000
29.7700 284.0000 1.0000
29.7900 275.0000 1.0000
29.8100 248.0000 1.0000
29.8300 232.0000 1.0000
29.8500 243.0000 1.0000
29.8700 233.0000 1.0000
29.8900 228.0000 1.0000
29.9100 232.0000 1.0000
29.9300 232.0000 1.0000
29.9500 211.0000 1.0000
29.9700 213.0000 1.0000
29.9900 220.0000 1.0000
30.0100 204.0000 1.0000
30.0300 215.0000 1.0000
30.0500 221.0000 1.0000
30.0700 208.0000 1.0000
30.0900 212.0000 1.0000
30.1100 191.0000 1.0000
30.1300 195.0000 1.0000
30.1500 229.0000 1.0000
30.1700 229.0000 1.0000
30.1900 216.0000 1.0000
30.2100 231.0000 1.0000
30.2300 249.0000 1.0000
30.2500 220.0000 1.0000
30.2700 190.0000 1.0000
30.2900 194.0000 1.0000
30.3100 202.0000 1.0000
30.3300 207.0000 1.0000
30.3500 192.0000 1.0000
30.3700 197.0000 1.0000
30.3900 214.0000 1.0000
30.4100 201.0000 1.0000
30.4300 199.0000 1.0000
30.4500 211.0000 1.0000
30.4700 202.0000 1.0000
30.4900 195.0000 1.0000
30.5100 215.0000 1.0000
30.5300 207.0000 1.0000
30.5500 215.0000 1.0000
30.5700 212.0000 1.0000
30.5900 195.0000 1.0000
30.6100 207.0000 1.0000
30.6300 204.0000 1.0000
30.6500 200.0000 1.0000
30.6700 212.0000 1.0000
30.6900 215.0000 1.0000
30.7100 209.0000 1.0000
30.7300 214.0000 1.0000
30.7500 206.0000 1.0000
30.7700 186.0000 1.0000
30.7900 203.0000 1.0000
30.8100 213.0000 1.0000
30.8300 196.0000 1.0000
30.8500 209.0000 1.0000
30.8700 213.0000 1.0000
30.8900 198.0000 1.0000
30.9100 203.0000 1.0000
30.9300 204.0000 1.0000
30.9500 203.0000 1.0000
30.9700 204.0000 1.0000
30.9900 208.0000 1.0000
31.0100 210.0000 1.0000
31.0300 196.0000 1.0000
31.0500 209.0000 1.0000
31.0700 207.0000 1.0000
31.0900 220.0000 1.0000
31.1100 226.0000 1.0000
31.1300 209.0000 1.0000
31.1500 212.0000 1.0000
31.1700 234.0000 1.0000
31.1900 225.0000 1.0000
31.2100 216.0000 1.0000
31.2300 211.0000 1.0000
31.2500 213.0000 1.0000
31.2700 215.0000 1.0000
31.2900 221.0000 1.0000
31.3100 221.0000 1.0000
31.3300 203.0000 1.0000
31.3500 203.0000 1.0000
31.3700 207.0000 1.0000
31.3900 210.0000 1.0000
31.4100 213.0000 1.0000
31.4300 195.0000 1.0000
31.4500 196.0000 1.0000
31.4700 214.0000 1.0000
31.4900 211.0000 1.0000
31.5100 219.0000 1.0000
31.5300 229.0000 1.0000
31.5500 231.0000 1.0000
31.5700 219.0000 1.0000
31.5900 222.0000 1.0000
31.6100 219.0000 1.0000
31.6300 234.0000 1.0000
31.6500 242.0000 1.0000
31.6700 221.0000 1.0000
31.6900 223.0000 1.0000
31.7100 244.0000 1.0000
31.7300 244.0000 1.0000
31.7500 247.0000 1.0000
31.7700 243.0000 1.0000
31.7900 219.0000 1.0000
31.8100 230.0000 1.0000
31.8300 230.0000 1.0000
31.8500 229.0000 1.0000
31.8700 256.0000 1.0000
31.8900 269.0000 1.0000
31.9100 251.0000 1.0000
31.9300 251.0000 1.0000
31.9500 247.0000 1.0000
31.9700 257.0000 1.0000
31.9900 265.0000 1.0000
32.0100 282.0000 1.0000
32.0300 312.0000 1.0000
32.0500 337.0000 1.0000
32.0700 388.0000 1.0000
32.0900 462.0000 1.0000
32.1100 510.0000 1.0000
32.1300 565.0000 1.0000
32.1500 678.0000 1.0000
32.1700 824.0000 1.0000
32.1900 906.0000 1.0000
32.2100 891.0000 1.0000
32.2300 854.0000 1.0000
32.2500 849.0000 1.0000
32.2700 832.0000 1.0000
32.2900 757.0000 1.0000
32.3100 651.0000 1.0000
32.3300 514.0000 1.0000
32.3500 409.0000 1.0000
32.3700 376.0000 1.0000
32.3900 341.0000 1.0000
32.4100 276.0000 1.0000
32.4300 256.0000 1.0000
32.4500 258.0000 1.0000
32.4700 261.0000 1.0000
32.4900 235.0000 1.0000
32.5100 224.0000 1.0000
32.5300 233.0000 1.0000
32.5500 218.0000 1.0000
32.5700 231.0000 1.0000
32.5900 235.0000 1.0000
32.6100 221.0000 1.0000
32.6300 231.0000 1.0000
32.6500 231.0000 1.0000
32.6700 231.0000 1.0000
32.6900 234.0000 1.0000
32.7100 227.0000 1.0000
32.7300 212.0000 1.0000
32.7500 218.0000 1.0000
32.7700 235.0000 1.0000
32.7900 232.0000 1.0000
32.8100 217.0000 1.0000
32.8300 207.0000 1.0000
32.8500 215.0000 1.0000
32.8700 217.0000 1.0000
32.8900 219.0000 1.0000
32.9100 211.0000 1.0000
32.9300 197.0000 1.0000
32.9500 222.0000 1.0000
32.9700 209.0000 1.0000
32.9900 209.0000 1.0000
33.0100 233.0000 1.0000
33.0300 232.0000 1.0000
33.0500 227.0000 1.0000
33.0700 212.0000 1.0000
33.0900 211.0000 1.0000
33.1100 211.0000 1.0000
33.1300 200.0000 1.0000
33.1500 187.0000 1.0000
33.1700 185.0000 1.0000
33.1900 196.0000 1.0000
33.2100 209.0000 1.0000
33.2300 207.0000 1.0000
33.2500 220.0000 1.0000
33.2700 222.0000 1.0000
33.2900 229.0000 1.0000
33.3100 219.0000 1.0000
33.3300 219.0000 1.0000
33.3500 219.0000 1.0000
33.3700 208.0000 1.0000
33.3900 210.0000 1.0000
33.4100 209.0000 1.0000
33.4300 211.0000 1.0000
33.4500 227.0000 1.0000
33.4700 204.0000 1.0000
33.4900 205.0000 1.0000
33.5100 201.0000 1.0000
33.5300 194.0000 1.0000
33.5500 215.0000 1.0000
33.5700 215.0000 1.0000
33.5900 202.0000 1.0000
33.6100 207.0000 1.0000
33.6300 216.0000 1.0000
33.6500 212.0000 1.0000
33.6700 213.0000 1.0000
33.6900 208.0000 1.0000
33.7100 214.0000 1.0000
33.7300 215.0000 1.0000
33.7500 209.0000 1.0000
33.7700 202.0000 1.0000
33.7900 189.0000 1.0000
33.8100 203.0000 1.0000
33.8300 210.0000 1.0000
33.8500 199.0000 1.0000
33.8700 202.0000 1.0000
33.8900 214.0000 1.0000
33.9100 204.0000 1.0000
33.9300 212.0000 1.0000
33.9500 215.0000 1.0000
33.9700 210.0000 1.0000
33.9900 221.0000 1.0000
34.0100 220.0000 1.0000
34.0300 196.0000 1.0000
34.0500 189.0000 1.0000
34.0700 227.0000 1.0000
34.0900 215.0000 1.0000
34.1100 219.0000 1.0000
34.1300 207.0000 1.0000
34.1500 216.0000 1.0000
34.1700 197.0000 1.0000
34.1900 217.0000 1.0000
34.2100 225.0000 1.0000
34.2300 204.0000 1.0000
34.2500 215.0000 1.0000
34.2700 205.0000 1.0000
34.2900 203.0000 1.0000
34.3100 193.0000 1.0000
34.3300 204.0000 1.0000
34.3500 203.0000 1.0000
34.3700 221.0000 1.0000
34.3900 212.0000 1.0000
34.4100 217.0000 1.0000
34.4300 212.0000 1.0000
34.4500 214.0000 1.0000
34.4700 201.0000 1.0000
34.4900 220.0000 1.0000
34.5100 216.0000 1.0000
34.5300 226.0000 1.0000
34.5500 212.0000 1.0000
34.5700 217.0000 1.0000
34.5900 221.0000 1.0000
34.6100 220.0000 1.0000
34.6300 233.0000 1.0000
34.6500 239.0000 1.0000
34.6700 205.0000 1.0000
34.6900 207.0000 1.0000
34.7100 217.0000 1.0000
34.7300 220.0000 1.0000
34.7500 213.0000 1.0000
34.7700 219.0000 1.0000
34.7900 218.0000 1.0000
34.8100 209.0000 1.0000
34.8300 198.0000 1.0000
34.8500 228.0000 1.0000
34.8700 204.0000 1.0000
34.8900 207.0000 1.0000
34.9100 224.0000 1.0000
34.9300 212.0000 1.0000
34.9500 219.0000 1.0000
34.9700 222.0000 1.0000
34.9900 200.0000 1.0000
35.0100 220.0000 1.0000
35.0300 216.0000 1.0000
35.0500 220.0000 1.0000
35.0700 228.0000 1.0000
35.0900 224.0000 1.0000
35.1100 214.0000 1.0000
35.1300 223.0000 1.0000
35.1500 249.0000 1.0000
35.1700 234.0000 1.0000
35.1900 236.0000 1.0000
35.2100 225.0000 1.0000
35.2300 224.0000 1.0000
35.2500 214.0000 1.0000
35.2700 220.0000 1.0000
35.2900 233.0000 1.0000
35.3100 222.0000 1.0000
35.3300 226.0000 1.0000
35.3500 221.0000 1.0000
35.3700 232.0000 1.0000
35.3900 243.0000 1.0000
35.4100 258.0000 1.0000
35.4300 263.0000 1.0000
35.4500 282.0000 1.0000
35.4700 333.0000 1.0000
35.4900 402.0000 1.0000
35.5100 484.0000 1.0000
35.5300 545.0000 1.0000
35.5500 570.0000 1.0000
35.5700 613.0000 1.0000
35.5900 678.0000 1.0000
35.6100 672.0000 1.0000
35.6300 579.0000 1.0000
35.6500 515.0000 1.0000
35.6700 452.0000 1.0000
35.6900 413.0000 1.0000
35.7100 392.0000 1.0000
35.7300 346.0000 1.0000
35.7500 284.0000 1.0000
35.7700 243.0000 1.0000
35.7900 255.0000 1.0000
35.8100 231.0000 1.0000
35.8300 223.0000 1.0000
35.8500 227.0000 1.0000
35.8700 218.0000 1.0000
35.8900 242.0000 1.0000
35.9100 248.0000 1.0000
35.9300 232.0000 1.0000
35.9500 221.0000 1.0000
35.9700 210.0000 1.0000
35.9900 213.0000 1.0000
36.0100 246.0000 1.0000
36.0300 247.0000 1.0000
36.0500 239.0000 1.0000
36.0700 218.0000 1.0000
36.0900 246.0000 1.0000
36.1100 242.0000 1.0000
36.1300 246.0000 1.0000
36.1500 230.0000 1.0000
36.1700 226.0000 1.0000
36.1900 240.0000 1.0000
36.2100 258.0000 1.0000
36.2300 284.0000 1.0000
36.2500 308.0000 1.0000
36.2700 318.0000 1.0000
36.2900 346.0000 1.0000
36.3100 427.0000 1.0000
36.3300 511.0000 1.0000
36.3500 589.0000 1.0000
36.3700 654.0000 1.0000
36.3900 702.0000 1.0000
36.4100 748.0000 1.0000
36.4300 675.0000 1.0000
36.4500 629.0000 1.0000
36.4700 558.0000 1.0000
36.4900 542.0000 1.0000
36.5100 473.0000 1.0000
36.5300 408.0000 1.0000
36.5500 361.0000 1.0000
36.5700 298.0000 1.0000
36.5900 266.0000 1.0000
36.6100 255.0000 1.0000
36.6300 262.0000 1.0000
36.6500 251.0000 1.0000
36.6700 233.0000 1.0000
36.6900 215.0000 1.0000
36.7100 221.0000 1.0000
36.7300 234.0000 1.0000
36.7500 234.0000 1.0000
36.7700 223.0000 1.0000
36.7900 206.0000 1.0000
36.8100 244.0000 1.0000
36.8300 227.0000 1.0000
36.8500 232.0000 1.0000
36.8700 213.0000 1.0000
36.8900 206.0000 1.0000
36.9100 216.0000 1.0000
36.9300 227.0000 1.0000
36.9500 216.0000 1.0000
36.9700 205.0000 1.0000
36.9900 204.0000 1.0000
37.0100 226.0000 1.0000
37.0300 201.0000 1.0000
37.0500 195.0000 1.0000
37.0700 219.0000 1.0000
37.0900 207.0000 1.0000
37.1100 216.0000 1.0000
37.1300 239.0000 1.0000
37.1500 218.0000 1.0000
37.1700 214.0000 1.0000
37.1900 202.0000 1.0000
37.2100 203.0000 1.0000
37.2300 215.0000 1.0000
37.2500 227.0000 1.0000
37.2700 211.0000 1.0000
37.2900 199.0000 1.0000
37.3100 198.0000 1.0000
37.3300 207.0000 1.0000
37.3500 212.0000 1.0000
37.3700 204.0000 1.0000
37.3900 232.0000 1.0000
37.4100 198.0000 1.0000
37.4300 218.0000 1.0000
37.4500 214.0000 1.0000
37.4700 210.0000 1.0000
37.4900 225.0000 1.0000
37.5100 230.0000 1.0000
37.5300 189.0000 1.0000
37.5500 224.0000 1.0000
37.5700 204.0000 1.0000
37.5900 224.0000 1.0000
37.6100 200.0000 1.0000
37.6300 223.0000 1.0000
37.6500 229.0000 1.0000
37.6700 238.0000 1.0000
37.6900 239.0000 1.0000
37.7100 227.0000 1.0000
37.7300 233.0000 1.0000
37.7500 216.0000 1.0000
37.7700 203.0000 1.0000
37.7900 223.0000 1.0000
37.8100 251.0000 1.0000
37.8300 207.0000 1.0000
37.8500 210.0000 1.0000
37.8700 202.0000 1.0000
37.8900 208.0000 1.0000
37.9100 226.0000 1.0000
37.9300 228.0000 1.0000
37.9500 206.0000 1.0000
37.9700 211.0000 1.0000
37.9900 238.0000 1.0000
38.0100 228.0000 1.0000
38.0300 251.0000 1.0000
38.0500 258.0000 1.0000
38.0700 252.0000 1.0000
38.0900 256.0000 1.0000
38.1100 257.0000 1.0000
38.1300 308.0000 1.0000
38.1500 318.0000 1.0000
38.1700 336.0000 1.0000
38.1900 366.0000 1.0000
38.2100 341.0000 1.0000
38.2300 360.0000 1.0000
38.2500 333.0000 1.0000
38.2700 325.0000 1.0000
38.2900 305.0000 1.0000
38.3100 260.0000 1.0000
38.3300 277.0000 1.0000
38.3500 245.0000 1.0000
38.3700 232.0000 1.0000
38.3900 235.0000 1.0000
38.4100 227.0000 1.0000
38.4300 213.0000 1.0000
38.4500 217.0000 1.0000
38.4700 210.0000 1.0000
38.4900 214.0000 1.0000
38.5100 233.0000 1.0000
38.5300 194.0000 1.0000
38.5500 225.0000 1.0000
38.5700 205.0000 1.0000
38.5900 237.0000 1.0000
38.6100 240.0000 1.0000
38.6300 216.0000 1.0000
38.6500 226.0000 1.0000
38.6700 239.0000 1.0000
38.6900 241.0000 1.0000
38.7100 253.0000 1.0000
38.7300 268.0000 1.0000
38.7500 241.0000 1.0000
38.7700 227.0000 1.0000
38.7900 217.0000 1.0000
38.8100 237.0000 1.0000
38.8300 224.0000 1.0000
38.8500 221.0000 1.0000
38.8700 232.0000 1.0000
38.8900 209.0000 1.0000
38.9100 215.0000 1.0000
38.9300 214.0000 1.0000
38.9500 220.0000 1.0000
38.9700 204.0000 1.0000
38.9900 234.0000 1.0000
39.0100 219.0000 1.0000
39.0300 223.0000 1.0000
39.0500 213.0000 1.0000
39.0700 237.0000 1.0000
39.0900 222.0000 1.0000
39.1100 232.0000 1.0000
39.1300 221.0000 1.0000
39.1500 202.0000 1.0000
39.1700 210.0000 1.0000
39.1900 211.0000 1.0000
39.2100 224.0000 1.0000
39.2300 207.0000 1.0000
39.2500 219.0000 1.0000
39.2700 222.0000 1.0000
39.2900 237.0000 1.0000
39.3100 248.0000 1.0000
39.3300 230.0000 1.0000
39.3500 228.0000 1.0000
39.3700 242.0000 1.0000
39.3900 254.0000 1.0000
39.4100 254.0000 1.0000
39.4300 258.0000 1.0000
39.4500 284.0000 1.0000
39.4700 311.0000 1.0000
39.4900 369.0000 1.0000
39.5100 426.0000 1.0000
39.5300 483.0000 1.0000
39.5500 502.0000 1.0000
39.5700 511.0000 1.0000
39.5900 532.0000 1.0000
39.6100 553.0000 1.0000
39.6300 506.0000 1.0000
39.6500 454.0000 1.0000
39.6700 419.0000 1.0000
39.6900 384.0000 1.0000
39.7100 368.0000 1.0000
39.7300 330.0000 1.0000
39.7500 316.0000 1.0000
39.7700 297.0000 1.0000
39.7900 280.0000 1.0000
39.8100 319.0000 1.0000
39.8300 287.0000 1.0000
39.8500 316.0000 1.0000
39.8700 320.0000 1.0000
39.8900 350.0000 1.0000
39.9100 409.0000 1.0000
39.9300 416.0000 1.0000
39.9500 454.0000 1.0000
39.9700 505.0000 1.0000
39.9900 488.0000 1.0000
40.0100 451.0000 1.0000
40.0300 352.0000 1.0000
40.0500 348.0000 1.0000
40.0700 308.0000 1.0000
40.0900 330.0000 1.0000
40.1100 267.0000 1.0000
40.1300 292.0000 1.0000
40.1500 231.0000 1.0000
40.1700 225.0000 1.0000
40.1900 220.0000 1.0000
40.2100 232.0000 1.0000
40.2300 201.0000 1.0000
40.2500 188.0000 1.0000
40.2700 201.0000 1.0000
40.2900 219.0000 1.0000
40.3100 215.0000 1.0000
40.3300 215.0000 1.0000
40.3500 187.0000 1.0000
40.3700 219.0000 1.0000
40.3900 214.0000 1.0000
40.4100 197.0000 1.0000
40.4300 205.0000 1.0000
40.4500 186.0000 1.0000
40.4700 210.0000 1.0000
40.4900 198.0000 1.0000
40.5100 227.0000 1.0000
40.5300 195.0000 1.0000
40.5500 192.0000 1.0000
40.5700 217.0000 1.0000
40.5900 212.0000 1.0000
40.6100 183.0000 1.0000
40.6300 211.0000 1.0000
40.6500 205.0000 1.0000
40.6700 209.0000 1.0000
40.6900 210.0000 1.0000
40.7100 226.0000 1.0000
40.7300 205.0000 1.0000
40.7500 214.0000 1.0000
40.7700 212.0000 1.0000
40.7900 213.0000 1.0000
40.8100 230.0000 1.0000
40.8300 201.0000 1.0000
40.8500 218.0000 1.0000
40.8700 221.0000 1.0000
40.8900 191.0000 1.0000
40.9100 216.0000 1.0000
40.9300 191.0000 1.0000
40.9500 209.0000 1.0000
40.9700 234.0000 1.0000
40.9900 222.0000 1.0000
41.0100 207.0000 1.0000
41.0300 213.0000 1.0000
41.0500 192.0000 1.0000
41.0700 237.0000 1.0000
41.0900 240.0000 1.0000
41.1100 200.0000 1.0000
41.1300 210.0000 1.0000
41.1500 193.0000 1.0000
41.1700 209.0000 1.0000
41.1900 226.0000 1.0000
41.2100 205.0000 1.0000
41.2300 190.0000 1.0000
41.2500 223.0000 1.0000
41.2700 197.0000 1.0000
41.2900 209.0000 1.0000
41.3100 211.0000 1.0000
41.3300 195.0000 1.0000
41.3500 225.0000 1.0000
41.3700 208.0000 1.0000
41.3900 223.0000 1.0000
41.4100 232.0000 1.0000
41.4300 212.0000 1.0000
41.4500 221.0000 1.0000
41.4700 228.0000 1.0000
41.4900 209.0000 1.0000
41.5100 195.0000 1.0000
41.5300 221.0000 1.0000
41.5500 240.0000 1.0000
41.5700 247.0000 1.0000
41.5900 257.0000 1.0000
41.6100 290.0000 1.0000
41.6300 320.0000 1.0000
41.6500 298.0000 1.0000
41.6700 281.0000 1.0000
41.6900 276.0000 1.0000
41.7100 301.0000 1.0000
41.7300 275.0000 1.0000
41.7500 266.0000 1.0000
41.7700 238.0000 1.0000
41.7900 272.0000 1.0000
41.8100 251.0000 1.0000
41.8300 238.0000 1.0000
41.8500 246.0000 1.0000
41.8700 199.0000 1.0000
41.8900 220.0000 1.0000
41.9100 246.0000 1.0000
41.9300 224.0000 1.0000
41.9500 202.0000 1.0000
41.9700 223.0000 1.0000
41.9900 212.0000 1.0000
42.0100 220.0000 1.0000
42.0300 193.0000 1.0000
42.0500 204.0000 1.0000
42.0700 226.0000 1.0000
42.0900 200.0000 1.0000
42.1100 216.0000 1.0000
42.1300 194.0000 1.0000
42.1500 199.0000 1.0000
42.1700 205.0000 1.0000
42.1900 204.0000 1.0000
42.2100 217.0000 1.0000
42.2300 204.0000 1.0000
42.2500 215.0000 1.0000
42.2700 214.0000 1.0000
42.2900 198.0000 1.0000
42.3100 160.0000 1.0000
42.3300 179.0000 1.0000
42.3500 213.0000 1.0000
42.3700 186.0000 1.0000
42.3900 202.0000 1.0000
42.4100 199.0000 1.0000
42.4300 205.0000 1.0000
42.4500 220.0000 1.0000
42.4700 207.0000 1.0000
42.4900 192.0000 1.0000
42.5100 204.0000 1.0000
42.5300 184.0000 1.0000
42.5500 198.0000 1.0000
42.5700 205.0000 1.0000
42.5900 197.0000 1.0000
42.6100 213.0000 1.0000
42.6300 221.0000 1.0000
42.6500 226.0000 1.0000
42.6700 204.0000 1.0000
42.6900 199.0000 1.0000
42.7100 194.0000 1.0000
42.7300 179.0000 1.0000
42.7500 204.0000 1.0000
42.7700 226.0000 1.0000
42.7900 217.0000 1.0000
42.8100 200.0000 1.0000
42.8300 218.0000 1.0000
42.8500 218.0000 1.0000
42.8700 214.0000 1.0000
42.8900 224.0000 1.0000
42.9100 228.0000 1.0000
42.9300 184.0000 1.0000
42.9500 177.0000 1.0000
42.9700 221.0000 1.0000
42.9900 237.0000 1.0000
43.0100 216.0000 1.0000
43.0300 206.0000 1.0000
43.0500 214.0000 1.0000
43.0700 211.0000 1.0000
43.0900 220.0000 1.0000
43.1100 200.0000 1.0000
43.1300 200.0000 1.0000
43.1500 206.0000 1.0000
43.1700 200.0000 1.0000
43.1900 192.0000 1.0000
43.2100 213.0000 1.0000
43.2300 228.0000 1.0000
43.2500 200.0000 1.0000
43.2700 200.0000 1.0000
43.2900 189.0000 1.0000
43.3100 206.0000 1.0000
43.3300 217.0000 1.0000
43.3500 222.0000 1.0000
43.3700 214.0000 1.0000
43.3900 190.0000 1.0000
43.4100 216.0000 1.0000
43.4300 222.0000 1.0000
43.4500 200.0000 1.0000
43.4700 197.0000 1.0000
43.4900 205.0000 1.0000
43.5100 216.0000 1.0000
43.5300 218.0000 1.0000
43.5500 222.0000 1.0000
43.5700 207.0000 1.0000
43.5900 203.0000 1.0000
43.6100 202.0000 1.0000
43.6300 209.0000 1.0000
43.6500 209.0000 1.0000
43.6700 218.0000 1.0000
43.6900 221.0000 1.0000
43.7100 194.0000 1.0000
43.7300 201.0000 1.0000
43.7500 201.0000 1.0000
43.7700 218.0000 1.0000
43.7900 189.0000 1.0000
43.8100 228.0000 1.0000
43.8300 200.0000 1.0000
43.8500 199.0000 1.0000
43.8700 201.0000 1.0000
43.8900 196.0000 1.0000
43.9100 181.0000 1.0000
43.9300 202.0000 1.0000
43.9500 219.0000 1.0000
43.9700 247.0000 1.0000
43.9900 205.0000 1.0000
44.0100 213.0000 1.0000
44.0300 208.0000 1.0000
44.0500 210.0000 1.0000
44.0700 204.0000 1.0000
44.0900 180.0000 1.0000
44.1100 176.0000 1.0000
44.1300 209.0000 1.0000
44.1500 220.0000 1.0000
44.1700 187.0000 1.0000
44.1900 213.0000 1.0000
44.2100 216.0000 1.0000
44.2300 213.0000 1.0000
44.2500 205.0000 1.0000
44.2700 212.0000 1.0000
44.2900 220.0000 1.0000
44.3100 242.0000 1.0000
44.3300 230.0000 1.0000
44.3500 226.0000 1.0000
44.3700 241.0000 1.0000
44.3900 233.0000 1.0000
44.4100 255.0000 1.0000
44.4300 262.0000 1.0000
44.4500 273.0000 1.0000
44.4700 245.0000 1.0000
44.4900 260.0000 1.0000
44.5100 237.0000 1.0000
44.5300 238.0000 1.0000
44.5500 215.0000 1.0000
44.5700 223.0000 1.0000
44.5900 216.0000 1.0000
44.6100 224.0000 1.0000
44.6300 208.0000 1.0000
44.6500 206.0000 1.0000
44.6700 216.0000 1.0000
44.6900 197.0000 1.0000
44.7100 212.0000 1.0000
44.7300 207.0000 1.0000
44.7500 208.0000 1.0000
44.7700 199.0000 1.0000
44.7900 183.0000 1.0000
44.8100 212.0000 1.0000
44.8300 218.0000 1.0000
44.8500 170.0000 1.0000
44.8700 205.0000 1.0000
44.8900 225.0000 1.0000
44.9100 201.0000 1.0000
44.9300 201.0000 1.0000
44.9500 188.0000 1.0000
44.9700 206.0000 1.0000
44.9900 206.0000 1.0000
45.0100 211.0000 1.0000
45.0300 203.0000 1.0000
45.0500 201.0000 1.0000
45.0700 208.0000 1.0000
45.0900 208.0000 1.0000
45.1100 210.0000 1.0000
45.1300 203.0000 1.0000
45.1500 234.0000 1.0000
45.1700 196.0000 1.0000
45.1900 197.0000 1.0000
45.2100 191.0000 1.0000
45.2300 195.0000 1.0000
45.2500 222.0000 1.0000
45.2700 206.0000 1.0000
45.2900 201.0000 1.0000
45.3100 177.0000 1.0000
45.3300 212.0000 1.0000
45.3500 207.0000 1.0000
45.3700 200.0000 1.0000
45.3900 185.0000 1.0000
45.4100 197.0000 1.0000
45.4300 182.0000 1.0000
45.4500 179.0000 1.0000
45.4700 186.0000 1.0000
45.4900 203.0000 1.0000
45.5100 208.0000 1.0000
45.5300 203.0000 1.0000
45.5500 203.0000 1.0000
45.5700 208.0000 1.0000
45.5900 207.0000 1.0000
45.6100 191.0000 1.0000
45.6300 205.0000 1.0000
45.6500 206.0000 1.0000
45.6700 199.0000 1.0000
45.6900 199.0000 1.0000
45.7100 201.0000 1.0000
45.7300 211.0000 1.0000
45.7500 221.0000 1.0000
45.7700 208.0000 1.0000
45.7900 232.0000 1.0000
45.8100 216.0000 1.0000
45.8300 210.0000 1.0000
45.8500 192.0000 1.0000
45.8700 175.0000 1.0000
45.8900 199.0000 1.0000
45.9100 195.0000 1.0000
45.9300 215.0000 1.0000
45.9500 214.0000 1.0000
45.9700 191.0000 1.0000
45.9900 176.0000 1.0000
46.0100 181.0000 1.0000
46.0300 220.0000 1.0000
46.0500 238.0000 1.0000
46.0700 221.0000 1.0000
46.0900 212.0000 1.0000
46.1100 194.0000 1.0000
46.1300 208.0000 1.0000
46.1500 218.0000 1.0000
46.1700 190.0000 1.0000
46.1900 199.0000 1.0000
46.2100 189.0000 1.0000
46.2300 198.0000 1.0000
46.2500 222.0000 1.0000
46.2700 209.0000 1.0000
46.2900 198.0000 1.0000
46.3100 189.0000 1.0000
46.3300 221.0000 1.0000
46.3500 243.0000 1.0000
46.3700 257.0000 1.0000
46.3900 228.0000 1.0000
46.4100 255.0000 1.0000
46.4300 244.0000 1.0000
46.4500 255.0000 1.0000
46.4700 234.0000 1.0000
46.4900 237.0000 1.0000
46.5100 228.0000 1.0000
46.5300 243.0000 1.0000
46.5500 225.0000 1.0000
46.5700 245.0000 1.0000
46.5900 237.0000 1.0000
46.6100 208.0000 1.0000
46.6300 218.0000 1.0000
46.6500 225.0000 1.0000
46.6700 236.0000 1.0000
46.6900 232.0000 1.0000
46.7100 225.0000 1.0000
46.7300 221.0000 1.0000
46.7500 204.0000 1.0000
46.7700 209.0000 1.0000
46.7900 230.0000 1.0000
46.8100 211.0000 1.0000
46.8300 209.0000 1.0000
46.8500 221.0000 1.0000
46.8700 196.0000 1.0000
46.8900 203.0000 1.0000
46.9100 205.0000 1.0000
46.9300 228.0000 1.0000
46.9500 228.0000 1.0000
46.9700 201.0000 1.0000
46.9900 193.0000 1.0000
47.0100 200.0000 1.0000
47.0300 207.0000 1.0000
47.0500 209.0000 1.0000
47.0700 204.0000 1.0000
47.0900 192.0000 1.0000
47.1100 208.0000 1.0000
47.1300 205.0000 1.0000
47.1500 213.0000 1.0000
47.1700 219.0000 1.0000
47.1900 202.0000 1.0000
47.2100 195.0000 1.0000
47.2300 206.0000 1.0000
47.2500 220.0000 1.0000
47.2700 222.0000 1.0000
47.2900 199.0000 1.0000
47.3100 206.0000 1.0000
47.3300 208.0000 1.0000
47.3500 205.0000 1.0000
47.3700 196.0000 1.0000
47.3900 192.0000 1.0000
47.4100 195.0000 1.0000
47.4300 201.0000 1.0000
47.4500 194.0000 1.0000
47.4700 178.0000 1.0000
47.4900 203.0000 1.0000
47.5100 210.0000 1.0000
47.5300 194.0000 1.0000
47.5500 204.0000 1.0000
47.5700 201.0000 1.0000
47.5900 196.0000 1.0000
47.6100 196.0000 1.0000
47.6300 206.0000 1.0000
47.6500 202.0000 1.0000
47.6700 221.0000 1.0000
47.6900 222.0000 1.0000
47.7100 201.0000 1.0000
47.7300 213.0000 1.0000
47.7500 219.0000 1.0000
47.7700 217.0000 1.0000
47.7900 208.0000 1.0000
47.8100 211.0000 1.0000
47.8300 222.0000 1.0000
47.8500 204.0000 1.0000
47.8700 179.0000 1.0000
47.8900 204.0000 1.0000
47.9100 196.0000 1.0000
47.9300 212.0000 1.0000
47.9500 232.0000 1.0000
47.9700 210.0000 1.0000
47.9900 209.0000 1.0000
48.0100 202.0000 1.0000
48.0300 203.0000 1.0000
48.0500 247.0000 1.0000
48.0700 224.0000 1.0000
48.0900 212.0000 1.0000
48.1100 196.0000 1.0000
48.1300 191.0000 1.0000
48.1500 207.0000 1.0000
48.1700 198.0000 1.0000
48.1900 220.0000 1.0000
48.2100 225.0000 1.0000
48.2300 225.0000 1.0000
48.2500 232.0000 1.0000
48.2700 242.0000 1.0000
48.2900 263.0000 1.0000
48.3100 260.0000 1.0000
48.3300 255.0000 1.0000
48.3500 238.0000 1.0000
48.3700 242.0000 1.0000
48.3900 250.0000 1.0000
48.4100 231.0000 1.0000
48.4300 236.0000 1.0000
48.4500 221.0000 1.0000
48.4700 234.0000 1.0000
48.4900 231.0000 1.0000
48.5100 235.0000 1.0000
48.5300 220.0000 1.0000
48.5500 233.0000 1.0000
48.5700 214.0000 1.0000
48.5900 207.0000 1.0000
48.6100 222.0000 1.0000
48.6300 204.0000 1.0000
48.6500 188.0000 1.0000
48.6700 199.0000 1.0000
48.6900 195.0000 1.0000
48.7100 221.0000 1.0000
48.7300 232.0000 1.0000
48.7500 223.0000 1.0000
48.7700 204.0000 1.0000
48.7900 191.0000 1.0000
48.8100 211.0000 1.0000
48.8300 217.0000 1.0000
48.8500 209.0000 1.0000
48.8700 198.0000 1.0000
48.8900 215.0000 1.0000
48.9100 225.0000 1.0000
48.9300 214.0000 1.0000
48.9500 202.0000 1.0000
48.9700 201.0000 1.0000
48.9900 200.0000 1.0000
49.0100 213.0000 1.0000
49.0300 221.0000 1.0000
49.0500 208.0000 1.0000
49.0700 204.0000 1.0000
49.0900 207.0000 1.0000
49.1100 202.0000 1.0000
49.1300 230.0000 1.0000
49.1500 207.0000 1.0000
49.1700 204.0000 1.0000
49.1900 206.0000 1.0000
49.2100 191.0000 1.0000
49.2300 186.0000 1.0000
49.2500 174.0000 1.0000
49.2700 194.0000 1.0000
49.2900 208.0000 1.0000
49.3100 199.0000 1.0000
49.3300 193.0000 1.0000
49.3500 197.0000 1.0000
49.3700 212.0000 1.0000
49.3900 211.0000 1.0000
49.4100 204.0000 1.0000
49.4300 206.0000 1.0000
49.4500 205.0000 1.0000
49.4700 209.0000 1.0000
49.4900 214.0000 1.0000
49.5100 198.0000 1.0000
49.5300 196.0000 1.0000
49.5500 196.0000 1.0000
49.5700 190.0000 1.0000
49.5900 197.0000 1.0000
49.6100 197.0000 1.0000
49.6300 213.0000 1.0000
49.6500 218.0000 1.0000
49.6700 212.0000 1.0000
49.6900 220.0000 1.0000
49.7100 217.0000 1.0000
49.7300 207.0000 1.0000
49.7500 199.0000 1.0000
49.7700 215.0000 1.0000
49.7900 229.0000 1.0000
49.8100 226.0000 1.0000
49.8300 226.0000 1.0000
49.8500 206.0000 1.0000
49.8700 200.0000 1.0000
49.8900 204.0000 1.0000
49.9100 207.0000 1.0000
49.9300 209.0000 1.0000
49.9500 198.0000 1.0000
49.9700 204.0000 1.0000
49.9900 216.0000 1.0000
50.0100 214.0000 1.0000
50.0300 188.0000 1.0000
50.0500 202.0000 1.0000
50.0700 209.0000 1.0000
50.0900 185.0000 1.0000
50.1100 194.0000 1.0000
50.1300 217.0000 1.0000
50.1500 228.0000 1.0000
50.1700 205.0000 1.0000
50.1900 202.0000 1.0000
50.2100 228.0000 1.0000
50.2300 233.0000 1.0000
50.2500 211.0000 1.0000
50.2700 224.0000 1.0000
50.2900 233.0000 1.0000
50.3100 233.0000 1.0000
50.3300 225.0000 1.0000
50.3500 219.0000 1.0000
50.3700 225.0000 1.0000
50.3900 226.0000 1.0000
50.4100 232.0000 1.0000
50.4300 206.0000 1.0000
50.4500 200.0000 1.0000
50.4700 204.0000 1.0000
50.4900 206.0000 1.0000
50.5100 208.0000 1.0000
50.5300 201.0000 1.0000
50.5500 197.0000 1.0000
50.5700 204.0000 1.0000
50.5900 227.0000 1.0000
50.6100 232.0000 1.0000
50.6300 231.0000 1.0000
50.6500 226.0000 1.0000
50.6700 218.0000 1.0000
50.6900 217.0000 1.0000
50.7100 232.0000 1.0000
50.7300 239.0000 1.0000
50.7500 242.0000 1.0000
50.7700 235.0000 1.0000
50.7900 233.0000 1.0000
50.8100 236.0000 1.0000
50.8300 244.0000 1.0000
50.8500 235.0000 1.0000
50.8700 225.0000 1.0000
50.8900 228.0000 1.0000
50.9100 215.0000 1.0000
50.9300 220.0000 1.0000
50.9500 227.0000 1.0000
50.9700 219.0000 1.0000
50.9900 219.0000 1.0000
51.0100 214.0000 1.0000
51.0300 207.0000 1.0000
51.0500 207.0000 1.0000
51.0700 204.0000 1.0000
51.0900 193.0000 1.0000
51.1100 204.0000 1.0000
51.1300 208.0000 1.0000
51.1500 197.0000 1.0000
51.1700 207.0000 1.0000
51.1900 211.0000 1.0000
51.2100 210.0000 1.0000
51.2300 210.0000 1.0000
51.2500 202.0000 1.0000
51.2700 193.0000 1.0000
51.2900 196.0000 1.0000
51.3100 208.0000 1.0000
51.3300 213.0000 1.0000
51.3500 214.0000 1.0000
51.3700 203.0000 1.0000
51.3900 191.0000 1.0000
51.4100 193.0000 1.0000
51.4300 199.0000 1.0000
51.4500 207.0000 1.0000
51.4700 207.0000 1.0000
51.4900 207.0000 1.0000
51.5100 216.0000 1.0000
51.5300 204.0000 1.0000
51.5500 212.0000 1.0000
51.5700 223.0000 1.0000
51.5900 206.0000 1.0000
51.6100 196.0000 1.0000
51.6300 210.0000 1.0000
51.6500 223.0000 1.0000
51.6700 206.0000 1.0000
51.6900 198.0000 1.0000
51.7100 208.0000 1.0000
51.7300 228.0000 1.0000
51.7500 228.0000 1.0000
51.7700 220.0000 1.0000
51.7900 222.0000 1.0000
51.8100 222.0000 1.0000
51.8300 219.0000 1.0000
51.8500 227.0000 1.0000
51.8700 223.0000 1.0000
51.8900 224.0000 1.0000
51.9100 225.0000 1.0000
51.9300 228.0000 1.0000
51.9500 251.0000 1.0000
51.9700 265.0000 1.0000
51.9900 297.0000 1.0000
52.0100 323.0000 1.0000
52.0300 360.0000 1.0000
52.0500 423.0000 1.0000
52.0700 464.0000 1.0000
52.0900 503.0000 1.0000
52.1100 512.0000 1.0000
52.1300 507.0000 1.0000
52.1500 480.0000 1.0000
52.1700 463.0000 1.0000
52.1900 456.0000 1.0000
52.2100 425.0000 1.0000
52.2300 404.0000 1.0000
52.2500 402.0000 1.0000
52.2700 394.0000 1.0000
52.2900 387.0000 1.0000
52.3100 376.0000 1.0000
52.3300 344.0000 1.0000
52.3500 340.0000 1.0000
52.3700 336.0000 1.0000
52.3900 328.0000 1.0000
52.4100 311.0000 1.0000
52.4300 298.0000 1.0000
52.4500 310.0000 1.0000
52.4700 298.0000 1.0000
52.4900 291.0000 1.0000
52.5100 273.0000 1.0000
52.5300 260.0000 1.0000
52.5500 243.0000 1.0000
52.5700 236.0000 1.0000
52.5900 252.0000 1.0000
52.6100 253.0000 1.0000
52.6300 236.0000 1.0000
52.6500 231.0000 1.0000
52.6700 233.0000 1.0000
52.6900 218.0000 1.0000
52.7100 223.0000 1.0000
52.7300 243.0000 1.0000
52.7500 250.0000 1.0000
52.7700 248.0000 1.0000
52.7900 236.0000 1.0000
52.8100 232.0000 1.0000
52.8300 231.0000 1.0000
52.8500 213.0000 1.0000
52.8700 218.0000 1.0000
52.8900 222.0000 1.0000
52.9100 207.0000 1.0000
52.9300 205.0000 1.0000
52.9500 211.0000 1.0000
52.9700 211.0000 1.0000
52.9900 223.0000 1.0000
53.0100 230.0000 1.0000
53.0300 208.0000 1.0000
53.0500 197.0000 1.0000
53.0700 207.0000 1.0000
53.0900 205.0000 1.0000
53.1100 210.0000 1.0000
53.1300 214.0000 1.0000
53.1500 204.0000 1.0000
53.1700 214.0000 1.0000
53.1900 212.0000 1.0000
53.2100 211.0000 1.0000
53.2300 223.0000 1.0000
53.2500 219.0000 1.0000
53.2700 210.0000 1.0000
53.2900 213.0000 1.0000
53.3100 209.0000 1.0000
53.3300 190.0000 1.0000
53.3500 195.0000 1.0000
53.3700 210.0000 1.0000
53.3900 215.0000 1.0000
53.4100 215.0000 1.0000
53.4300 215.0000 1.0000
53.4500 212.0000 1.0000
53.4700 199.0000 1.0000
53.4900 196.0000 1.0000
53.5100 210.0000 1.0000
53.5300 211.0000 1.0000
53.5500 202.0000 1.0000
53.5700 193.0000 1.0000
53.5900 189.0000 1.0000
53.6100 194.0000 1.0000
53.6300 205.0000 1.0000
53.6500 217.0000 1.0000
53.6700 213.0000 1.0000
53.6900 198.0000 1.0000
53.7100 197.0000 1.0000
53.7300 199.0000 1.0000
53.7500 190.0000 1.0000
53.7700 199.0000 1.0000
53.7900 203.0000 1.0000
53.8100 196.0000 1.0000
53.8300 198.0000 1.0000
53.8500 205.0000 1.0000
53.8700 226.0000 1.0000
53.8900 224.0000 1.0000
53.9100 204.0000 1.0000
53.9300 191.0000 1.0000
53.9500 185.0000 1.0000
53.9700 207.0000 1.0000
53.9900 208.0000 1.0000
54.0100 196.0000 1.0000
54.0300 223.0000 1.0000
54.0500 214.0000 1.0000
54.0700 190.0000 1.0000
54.0900 200.0000 1.0000
54.1100 206.0000 1.0000
54.1300 211.0000 1.0000
54.1500 210.0000 1.0000
54.1700 203.0000 1.0000
54.1900 198.0000 1.0000
54.2100 190.0000 1.0000
54.2300 204.0000 1.0000
54.2500 217.0000 1.0000
54.2700 201.0000 1.0000
54.2900 203.0000 1.0000
54.3100 210.0000 1.0000
54.3300 215.0000 1.0000
54.3500 226.0000 1.0000
54.3700 220.0000 1.0000
54.3900 208.0000 1.0000
54.4100 206.0000 1.0000
54.4300 205.0000 1.0000
54.4500 209.0000 1.0000
54.4700 207.0000 1.0000
54.4900 204.0000 1.0000
54.5100 196.0000 1.0000
54.5300 203.0000 1.0000
54.5500 224.0000 1.0000
54.5700 212.0000 1.0000
54.5900 211.0000 1.0000
54.6100 226.0000 1.0000
54.6300 228.0000 1.0000
54.6500 222.0000 1.0000
54.6700 219.0000 1.0000
54.6900 245.0000 1.0000
54.7100 273.0000 1.0000
54.7300 290.0000 1.0000
54.7500 313.0000 1.0000
54.7700 306.0000 1.0000
54.7900 272.0000 1.0000
54.8100 256.0000 1.0000
54.8300 255.0000 1.0000
54.8500 260.0000 1.0000
54.8700 255.0000 1.0000
54.8900 253.0000 1.0000
54.9100 279.0000 1.0000
54.9300 268.0000 1.0000
54.9500 224.0000 1.0000
54.9700 201.0000 1.0000
54.9900 208.0000 1.0000
55.0100 212.0000 1.0000
55.0300 188.0000 1.0000
55.0500 187.0000 1.0000
55.0700 191.0000 1.0000
55.0900 207.0000 1.0000
55.1100 204.0000 1.0000
55.1300 192.0000 1.0000
55.1500 216.0000 1.0000
55.1700 221.0000 1.0000
55.1900 215.0000 1.0000
55.2100 211.0000 1.0000
55.2300 213.0000 1.0000
55.2500 206.0000 1.0000
55.2700 197.0000 1.0000
55.2900 196.0000 1.0000
55.3100 216.0000 1.0000
55.3300 217.0000 1.0000
55.3500 200.0000 1.0000
55.3700 204.0000 1.0000
55.3900 211.0000 1.0000
55.4100 217.0000 1.0000
55.4300 210.0000 1.0000
55.4500 199.0000 1.0000
55.4700 205.0000 1.0000
55.4900 207.0000 1.0000
55.5100 214.0000 1.0000
55.5300 215.0000 1.0000
55.5500 209.0000 1.0000
55.5700 205.0000 1.0000
55.5900 201.0000 1.0000
55.6100 210.0000 1.0000
55.6300 225.0000 1.0000
55.6500 217.0000 1.0000
55.6700 213.0000 1.0000
55.6900 222.0000 1.0000
55.7100 219.0000 1.0000
55.7300 208.0000 1.0000
55.7500 206.0000 1.0000
55.7700 221.0000 1.0000
55.7900 229.0000 1.0000
55.8100 224.0000 1.0000
55.8300 230.0000 1.0000
55.8500 224.0000 1.0000
55.8700 242.0000 1.0000
55.8900 283.0000 1.0000
55.9100 297.0000 1.0000
55.9300 308.0000 1.0000
55.9500 342.0000 1.0000
55.9700 354.0000 1.0000
55.9900 345.0000 1.0000
56.0100 348.0000 1.0000
56.0300 324.0000 1.0000
56.0500 321.0000 1.0000
56.0700 314.0000 1.0000
56.0900 330.0000 1.0000
56.1100 360.0000 1.0000
56.1300 330.0000 1.0000
56.1500 289.0000 1.0000
56.1700 277.0000 1.0000
56.1900 274.0000 1.0000
56.2100 263.0000 1.0000
56.2300 249.0000 1.0000
56.2500 246.0000 1.0000
56.2700 246.0000 1.0000
56.2900 233.0000 1.0000
56.3100 217.0000 1.0000
56.3300 214.0000 1.0000
56.3500 215.0000 1.0000
56.3700 220.0000 1.0000
56.3900 221.0000 1.0000
56.4100 224.0000 1.0000
56.4300 221.0000 1.0000
56.4500 224.0000 1.0000
56.4700 219.0000 1.0000
56.4900 225.0000 1.0000
56.5100 227.0000 1.0000
56.5300 224.0000 1.0000
56.5500 230.0000 1.0000
56.5700 229.0000 1.0000
56.5900 256.0000 1.0000
56.6100 298.0000 1.0000
56.6300 345.0000 1.0000
56.6500 388.0000 1.0000
56.6700 414.0000 1.0000
56.6900 395.0000 1.0000
56.7100 367.0000 1.0000
56.7300 337.0000 1.0000
56.7500 298.0000 1.0000
56.7700 288.0000 1.0000
56.7900 288.0000 1.0000
56.8100 310.0000 1.0000
56.8300 328.0000 1.0000
56.8500 316.0000 1.0000
56.8700 288.0000 1.0000
56.8900 269.0000 1.0000
56.9100 238.0000 1.0000
56.9300 220.0000 1.0000
56.9500 235.0000 1.0000
56.9700 226.0000 1.0000
56.9900 217.0000 1.0000
57.0100 220.0000 1.0000
57.0300 211.0000 1.0000
57.0500 204.0000 1.0000
57.0700 197.0000 1.0000
57.0900 209.0000 1.0000
57.1100 210.0000 1.0000
57.1300 218.0000 1.0000
57.1500 216.0000 1.0000
57.1700 212.0000 1.0000
57.1900 210.0000 1.0000
57.2100 201.0000 1.0000
57.2300 211.0000 1.0000
57.2500 213.0000 1.0000
57.2700 209.0000 1.0000
57.2900 215.0000 1.0000
57.3100 217.0000 1.0000
57.3300 220.0000 1.0000
57.3500 224.0000 1.0000
57.3700 209.0000 1.0000
57.3900 200.0000 1.0000
57.4100 198.0000 1.0000
57.4300 199.0000 1.0000
57.4500 217.0000 1.0000
57.4700 228.0000 1.0000
57.4900 223.0000 1.0000
57.5100 219.0000 1.0000
57.5300 210.0000 1.0000
57.5500 208.0000 1.0000
57.5700 204.0000 1.0000
57.5900 200.0000 1.0000
57.6100 201.0000 1.0000
57.6300 223.0000 1.0000
57.6500 240.0000 1.0000
57.6700 229.0000 1.0000
57.6900 204.0000 1.0000
57.7100 202.0000 1.0000
57.7300 223.0000 1.0000
57.7500 231.0000 1.0000
57.7700 242.0000 1.0000
57.7900 239.0000 1.0000
57.8100 229.0000 1.0000
57.8300 228.0000 1.0000
57.8500 240.0000 1.0000
57.8700 234.0000 1.0000
57.8900 233.0000 1.0000
57.9100 234.0000 1.0000
57.9300 216.0000 1.0000
57.9500 216.0000 1.0000
57.9700 215.0000 1.0000
57.9900 219.0000 1.0000
58.0100 237.0000 1.0000
58.0300 219.0000 1.0000
58.0500 215.0000 1.0000
58.0700 218.0000 1.0000
58.0900 218.0000 1.0000
58.1100 196.0000 1.0000
58.1300 220.0000 1.0000
58.1500 224.0000 1.0000
58.1700 216.0000 1.0000
58.1900 224.0000 1.0000
58.2100 224.0000 1.0000
58.2300 223.0000 1.0000
58.2500 209.0000 1.0000
58.2700 206.0000 1.0000
58.2900 222.0000 1.0000
58.3100 218.0000 1.0000
58.3300 200.0000 1.0000
58.3500 210.0000 1.0000
58.3700 226.0000 1.0000
58.3900 233.0000 1.0000
58.4100 227.0000 1.0000
58.4300 230.0000 1.0000
58.4500 232.0000 1.0000
58.4700 255.0000 1.0000
58.4900 266.0000 1.0000
58.5100 269.0000 1.0000
58.5300 269.0000 1.0000
58.5500 262.0000 1.0000
58.5700 258.0000 1.0000
58.5900 245.0000 1.0000
58.6100 248.0000 1.0000
58.6300 231.0000 1.0000
58.6500 227.0000 1.0000
58.6700 251.0000 1.0000
58.6900 268.0000 1.0000
58.7100 277.0000 1.0000
58.7300 262.0000 1.0000
58.7500 255.0000 1.0000
58.7700 234.0000 1.0000
58.7900 216.0000 1.0000
58.8100 229.0000 1.0000
58.8300 222.0000 1.0000
58.8500 237.0000 1.0000
58.8700 226.0000 1.0000
58.8900 204.0000 1.0000
58.9100 212.0000 1.0000
58.9300 216.0000 1.0000
58.9500 206.0000 1.0000
58.9700 213.0000 1.0000
58.9900 216.0000 1.0000
59.0100 207.0000 1.0000
59.0300 201.0000 1.0000
59.0500 218.0000 1.0000
59.0700 224.0000 1.0000
59.0900 212.0000 1.0000
59.1100 206.0000 1.0000
59.1300 200.0000 1.0000
59.1500 186.0000 1.0000
59.1700 184.0000 1.0000
59.1900 209.0000 1.0000
59.2100 209.0000 1.0000
59.2300 194.0000 1.0000
59.2500 181.0000 1.0000
59.2700 195.0000 1.0000
59.2900 221.0000 1.0000
59.3100 220.0000 1.0000
59.3300 224.0000 1.0000
59.3500 230.0000 1.0000
59.3700 230.0000 1.0000
59.3900 214.0000 1.0000
59.4100 197.0000 1.0000
59.4300 200.0000 1.0000
59.4500 217.0000 1.0000
59.4700 217.0000 1.0000
59.4900 203.0000 1.0000
59.5100 209.0000 1.0000
59.5300 218.0000 1.0000
59.5500 213.0000 1.0000
59.5700 198.0000 1.0000
59.5900 199.0000 1.0000
59.6100 213.0000 1.0000
59.6300 235.0000 1.0000
59.6500 222.0000 1.0000
59.6700 209.0000 1.0000
59.6900 194.0000 1.0000
59.7100 207.0000 1.0000
59.7300 215.0000 1.0000
59.7500 213.0000 1.0000
59.7700 221.0000 1.0000
59.7900 203.0000 1.0000
59.8100 195.0000 1.0000
59.8300 202.0000 1.0000
59.8500 196.0000 1.0000
59.8700 192.0000 1.0000
59.8900 208.0000 1.0000
59.9100 206.0000 1.0000
59.9300 197.0000 1.0000
59.9500 210.0000 1.0000
59.9700 216.0000 1.0000
59.9900 217.0000 1.0000
60.0100 208.0000 1.0000
60.0300 200.0000 1.0000
60.0500 196.0000 1.0000
60.0700 194.0000 1.0000
60.0900 204.0000 1.0000
60.1100 217.0000 1.0000
60.1300 239.0000 1.0000
60.1500 218.0000 1.0000
60.1700 210.0000 1.0000
60.1900 212.0000 1.0000
60.2100 213.0000 1.0000
60.2300 238.0000 1.0000
60.2500 211.0000 1.0000
60.2700 210.0000 1.0000
60.2900 220.0000 1.0000
60.3100 206.0000 1.0000
60.3300 205.0000 1.0000
60.3500 202.0000 1.0000
60.3700 205.0000 1.0000
60.3900 224.0000 1.0000
60.4100 219.0000 1.0000
60.4300 213.0000 1.0000
60.4500 211.0000 1.0000
60.4700 218.0000 1.0000
60.4900 215.0000 1.0000
60.5100 211.0000 1.0000
60.5300 217.0000 1.0000
60.5500 200.0000 1.0000
60.5700 193.0000 1.0000
60.5900 218.0000 1.0000
60.6100 219.0000 1.0000
60.6300 199.0000 1.0000
60.6500 198.0000 1.0000
60.6700 213.0000 1.0000
60.6900 209.0000 1.0000
60.7100 210.0000 1.0000
60.7300 207.0000 1.0000
60.7500 199.0000 1.0000
60.7700 194.0000 1.0000
60.7900 225.0000 1.0000
60.8100 229.0000 1.0000
60.8300 202.0000 1.0000
60.8500 208.0000 1.0000
60.8700 222.0000 1.0000
60.8900 221.0000 1.0000
60.9100 246.0000 1.0000
60.9300 244.0000 1.0000
60.9500 216.0000 1.0000
60.9700 215.0000 1.0000
60.9900 227.0000 1.0000
61.0100 216.0000 1.0000
61.0300 223.0000 1.0000
61.0500 226.0000 1.0000
61.0700 232.0000 1.0000
61.0900 227.0000 1.0000
61.1100 237.0000 1.0000
61.1300 247.0000 1.0000
61.1500 262.0000 1.0000
61.1700 268.0000 1.0000
61.1900 255.0000 1.0000
61.2100 254.0000 1.0000
61.2300 252.0000 1.0000
61.2500 230.0000 1.0000
61.2700 220.0000 1.0000
61.2900 222.0000 1.0000
61.3100 224.0000 1.0000
61.3300 230.0000 1.0000
61.3500 251.0000 1.0000
61.3700 260.0000 1.0000
61.3900 246.0000 1.0000
61.4100 238.0000 1.0000
61.4300 250.0000 1.0000
61.4500 256.0000 1.0000
61.4700 251.0000 1.0000
61.4900 247.0000 1.0000
61.5100 257.0000 1.0000
61.5300 264.0000 1.0000
61.5500 261.0000 1.0000
61.5700 233.0000 1.0000
61.5900 232.0000 1.0000
61.6100 236.0000 1.0000
61.6300 242.0000 1.0000
61.6500 248.0000 1.0000
61.6700 259.0000 1.0000
61.6900 258.0000 1.0000
61.7100 270.0000 1.0000
61.7300 287.0000 1.0000
61.7500 275.0000 1.0000
61.7700 274.0000 1.0000
61.7900 285.0000 1.0000
61.8100 290.0000 1.0000
61.8300 306.0000 1.0000
61.8500 299.0000 1.0000
61.8700 273.0000 1.0000
61.8900 284.0000 1.0000
61.9100 274.0000 1.0000
61.9300 261.0000 1.0000
61.9500 265.0000 1.0000
61.9700 265.0000 1.0000
61.9900 253.0000 1.0000
62.0100 253.0000 1.0000
62.0300 243.0000 1.0000
62.0500 234.0000 1.0000
62.0700 230.0000 1.0000
62.0900 238.0000 1.0000
62.1100 241.0000 1.0000
62.1300 214.0000 1.0000
62.1500 213.0000 1.0000
62.1700 234.0000 1.0000
62.1900 229.0000 1.0000
62.2100 230.0000 1.0000
62.2300 220.0000 1.0000
62.2500 221.0000 1.0000
62.2700 230.0000 1.0000
62.2900 231.0000 1.0000
62.3100 244.0000 1.0000
62.3300 249.0000 1.0000
62.3500 249.0000 1.0000
62.3700 262.0000 1.0000
62.3900 267.0000 1.0000
62.4100 260.0000 1.0000
62.4300 243.0000 1.0000
62.4500 273.0000 1.0000
62.4700 306.0000 1.0000
62.4900 343.0000 1.0000
62.5100 439.0000 1.0000
62.5300 540.0000 1.0000
62.5500 676.0000 1.0000
62.5700 809.0000 1.0000
62.5900 887.0000 1.0000
62.6100 874.0000 1.0000
62.6300 774.0000 1.0000
62.6500 621.0000 1.0000
62.6700 537.0000 1.0000
62.6900 476.0000 1.0000
62.7100 494.0000 1.0000
62.7300 556.0000 1.0000
62.7500 590.0000 1.0000
62.7700 575.0000 1.0000
62.7900 537.0000 1.0000
62.8100 455.0000 1.0000
62.8300 382.0000 1.0000
62.8500 312.0000 1.0000
62.8700 262.0000 1.0000
62.8900 260.0000 1.0000
62.9100 242.0000 1.0000
62.9300 223.0000 1.0000
62.9500 229.0000 1.0000
62.9700 231.0000 1.0000
62.9900 222.0000 1.0000
63.0100 221.0000 1.0000
63.0300 223.0000 1.0000
63.0500 218.0000 1.0000
63.0700 222.0000 1.0000
63.0900 218.0000 1.0000
63.1100 213.0000 1.0000
63.1300 228.0000 1.0000
63.1500 231.0000 1.0000
63.1700 219.0000 1.0000
63.1900 204.0000 1.0000
63.2100 207.0000 1.0000
63.2300 199.0000 1.0000
63.2500 196.0000 1.0000
63.2700 218.0000 1.0000
63.2900 213.0000 1.0000
63.3100 214.0000 1.0000
63.3300 226.0000 1.0000
63.3500 230.0000 1.0000
63.3700 209.0000 1.0000
63.3900 210.0000 1.0000
63.4100 221.0000 1.0000
63.4300 215.0000 1.0000
63.4500 213.0000 1.0000
63.4700 204.0000 1.0000
63.4900 206.0000 1.0000
63.5100 215.0000 1.0000
63.5300 203.0000 1.0000
63.5500 204.0000 1.0000
63.5700 204.0000 1.0000
63.5900 221.0000 1.0000
63.6100 237.0000 1.0000
63.6300 219.0000 1.0000
63.6500 199.0000 1.0000
63.6700 200.0000 1.0000
63.6900 197.0000 1.0000
63.7100 211.0000 1.0000
63.7300 206.0000 1.0000
63.7500 222.0000 1.0000
63.7700 214.0000 1.0000
63.7900 211.0000 1.0000
63.8100 180.0000 1.0000
63.8300 193.0000 1.0000
63.8500 216.0000 1.0000
63.8700 224.0000 1.0000
63.8900 211.0000 1.0000
63.9100 201.0000 1.0000
63.9300 211.0000 1.0000
63.9500 204.0000 1.0000
63.9700 196.0000 1.0000
63.9900 211.0000 1.0000
64.0100 216.0000 1.0000
64.0300 217.0000 1.0000
64.0500 217.0000 1.0000
64.0700 203.0000 1.0000
64.0900 189.0000 1.0000
64.1100 211.0000 1.0000
64.1300 219.0000 1.0000
64.1500 219.0000 1.0000
64.1700 217.0000 1.0000
64.1900 209.0000 1.0000
64.2100 183.0000 1.0000
64.2300 194.0000 1.0000
64.2500 181.0000 1.0000
64.2700 180.0000 1.0000
64.2900 208.0000 1.0000
64.3100 203.0000 1.0000
64.3300 201.0000 1.0000
64.3500 211.0000 1.0000
64.3700 208.0000 1.0000
64.3900 198.0000 1.0000
64.4100 210.0000 1.0000
64.4300 240.0000 1.0000
64.4500 228.0000 1.0000
64.4700 214.0000 1.0000
64.4900 201.0000 1.0000
64.5100 204.0000 1.0000
64.5300 224.0000 1.0000
64.5500 200.0000 1.0000
64.5700 199.0000 1.0000
64.5900 213.0000 1.0000
64.6100 211.0000 1.0000
64.6300 213.0000 1.0000
64.6500 219.0000 1.0000
64.6700 232.0000 1.0000
64.6900 250.0000 1.0000
64.7100 233.0000 1.0000
64.7300 233.0000 1.0000
64.7500 220.0000 1.0000
64.7700 220.0000 1.0000
64.7900 221.0000 1.0000
64.8100 230.0000 1.0000
64.8300 225.0000 1.0000
64.8500 234.0000 1.0000
64.8700 218.0000 1.0000
64.8900 210.0000 1.0000
64.9100 221.0000 1.0000
64.9300 223.0000 1.0000
64.9500 204.0000 1.0000
64.9700 210.0000 1.0000
64.9900 217.0000 1.0000
65.0100 204.0000 1.0000
65.0300 192.0000 1.0000
65.0500 193.0000 1.0000
65.0700 222.0000 1.0000
65.0900 222.0000 1.0000
65.1100 214.0000 1.0000
65.1300 214.0000 1.0000
65.1500 200.0000 1.0000
65.1700 203.0000 1.0000
65.1900 171.0000 1.0000
65.2100 185.0000 1.0000
65.2300 196.0000 1.0000
65.2500 198.0000 1.0000
65.2700 210.0000 1.0000
65.2900 221.0000 1.0000
65.3100 210.0000 1.0000
65.3300 207.0000 1.0000
65.3500 209.0000 1.0000
65.3700 188.0000 1.0000
65.3900 208.0000 1.0000
65.4100 197.0000 1.0000
65.4300 202.0000 1.0000
65.4500 203.0000 1.0000
65.4700 210.0000 1.0000
65.4900 209.0000 1.0000
65.5100 199.0000 1.0000
65.5300 216.0000 1.0000
65.5500 210.0000 1.0000
65.5700 191.0000 1.0000
65.5900 217.0000 1.0000
65.6100 214.0000 1.0000
65.6300 203.0000 1.0000
65.6500 218.0000 1.0000
65.6700 208.0000 1.0000
65.6900 207.0000 1.0000
65.7100 203.0000 1.0000
65.7300 210.0000 1.0000
65.7500 216.0000 1.0000
65.7700 195.0000 1.0000
65.7900 197.0000 1.0000
65.8100 199.0000 1.0000
65.8300 216.0000 1.0000
65.8500 214.0000 1.0000
65.8700 208.0000 1.0000
65.8900 210.0000 1.0000
65.9100 223.0000 1.0000
65.9300 210.0000 1.0000
65.9500 205.0000 1.0000
65.9700 216.0000 1.0000
65.9900 224.0000 1.0000
66.0100 204.0000 1.0000
66.0300 221.0000 1.0000
66.0500 223.0000 1.0000
66.0700 209.0000 1.0000
66.0900 203.0000 1.0000
66.1100 210.0000 1.0000
66.1300 212.0000 1.0000
66.1500 189.0000 1.0000
66.1700 190.0000 1.0000
66.1900 210.0000 1.0000
66.2100 208.0000 1.0000
66.2300 203.0000 1.0000
66.2500 227.0000 1.0000
66.2700 204.0000 1.0000
66.2900 218.0000 1.0000
66.3100 214.0000 1.0000
66.3300 189.0000 1.0000
66.3500 188.0000 1.0000
66.3700 200.0000 1.0000
66.3900 191.0000 1.0000
66.4100 207.0000 1.0000
66.4300 215.0000 1.0000
66.4500 207.0000 1.0000
66.4700 231.0000 1.0000
66.4900 233.0000 1.0000
66.5100 216.0000 1.0000
66.5300 213.0000 1.0000
66.5500 194.0000 1.0000
66.5700 193.0000 1.0000
66.5900 192.0000 1.0000
66.6100 238.0000 1.0000
66.6300 242.0000 1.0000
66.6500 237.0000 1.0000
66.6700 242.0000 1.0000
66.6900 249.0000 1.0000
66.7100 240.0000 1.0000
66.7300 232.0000 1.0000
66.7500 222.0000 1.0000
66.7700 248.0000 1.0000
66.7900 259.0000 1.0000
66.8100 278.0000 1.0000
66.8300 307.0000 1.0000
66.8500 304.0000 1.0000
66.8700 346.0000 1.0000
66.8900 389.0000 1.0000
66.9100 399.0000 1.0000
66.9300 385.0000 1.0000
66.9500 363.0000 1.0000
66.9700 311.0000 1.0000
66.9900 277.0000 1.0000
67.0100 274.0000 1.0000
67.0300 288.0000 1.0000
67.0500 260.0000 1.0000
67.0700 277.0000 1.0000
67.0900 273.0000 1.0000
67.1100 290.0000 1.0000
67.1300 301.0000 1.0000
67.1500 268.0000 1.0000
67.1700 282.0000 1.0000
67.1900 253.0000 1.0000
67.2100 229.0000 1.0000
67.2300 244.0000 1.0000
67.2500 220.0000 1.0000
67.2700 257.0000 1.0000
67.2900 231.0000 1.0000
67.3100 210.0000 1.0000
67.3300 238.0000 1.0000
67.3500 202.0000 1.0000
67.3700 242.0000 1.0000
67.3900 222.0000 1.0000
67.4100 203.0000 1.0000
67.4300 213.0000 1.0000
67.4500 218.0000 1.0000
67.4700 212.0000 1.0000
67.4900 216.0000 1.0000
67.5100 203.0000 1.0000
67.5300 190.0000 1.0000
67.5500 193.0000 1.0000
67.5700 200.0000 1.0000
67.5900 213.0000 1.0000
67.6100 208.0000 1.0000
67.6300 197.0000 1.0000
67.6500 199.0000 1.0000
67.6700 210.0000 1.0000
67.6900 187.0000 1.0000
67.7100 176.0000 1.0000
67.7300 219.0000 1.0000
67.7500 202.0000 1.0000
67.7700 226.0000 1.0000
67.7900 192.0000 1.0000
67.8100 202.0000 1.0000
67.8300 209.0000 1.0000
67.8500 224.0000 1.0000
67.8700 213.0000 1.0000
67.8900 214.0000 1.0000
67.9100 211.0000 1.0000
67.9300 223.0000 1.0000
67.9500 221.0000 1.0000
67.9700 211.0000 1.0000
67.9900 230.0000 1.0000
68.0100 187.0000 1.0000
68.0300 227.0000 1.0000
68.0500 201.0000 1.0000
68.0700 192.0000 1.0000
68.0900 212.0000 1.0000
68.1100 203.0000 1.0000
68.1300 209.0000 1.0000
68.1500 186.0000 1.0000
68.1700 206.0000 1.0000
68.1900 202.0000 1.0000
68.2100 217.0000 1.0000
68.2300 202.0000 1.0000
68.2500 194.0000 1.0000
68.2700 217.0000 1.0000
68.2900 238.0000 1.0000
68.3100 210.0000 1.0000
68.3300 218.0000 1.0000
68.3500 228.0000 1.0000
68.3700 193.0000 1.0000
68.3900 202.0000 1.0000
68.4100 206.0000 1.0000
68.4300 212.0000 1.0000
68.4500 224.0000 1.0000
68.4700 206.0000 1.0000
68.4900 193.0000 1.0000
68.5100 223.0000 1.0000
68.5300 189.0000 1.0000
68.5500 233.0000 1.0000
68.5700 202.0000 1.0000
68.5900 219.0000 1.0000
68.6100 205.0000 1.0000
68.6300 204.0000 1.0000
68.6500 210.0000 1.0000
68.6700 208.0000 1.0000
68.6900 202.0000 1.0000
68.7100 197.0000 1.0000
68.7300 221.0000 1.0000
68.7500 215.0000 1.0000
68.7700 212.0000 1.0000
68.7900 211.0000 1.0000
68.8100 208.0000 1.0000
68.8300 200.0000 1.0000
68.8500 208.0000 1.0000
68.8700 222.0000 1.0000
68.8900 226.0000 1.0000
68.9100 228.0000 1.0000
68.9300 207.0000 1.0000
68.9500 222.0000 1.0000
68.9700 229.0000 1.0000
68.9900 221.0000 1.0000
69.0100 209.0000 1.0000
69.0300 205.0000 1.0000
69.0500 228.0000 1.0000
69.0700 228.0000 1.0000
69.0900 216.0000 1.0000
69.1100 234.0000 1.0000
69.1300 203.0000 1.0000
69.1500 173.0000 1.0000
69.1700 235.0000 1.0000
69.1900 242.0000 1.0000
69.2100 225.0000 1.0000
69.2300 234.0000 1.0000
69.2500 303.0000 1.0000
69.2700 287.0000 1.0000
69.2900 320.0000 1.0000
69.3100 393.0000 1.0000
69.3300 468.0000 1.0000
69.3500 533.0000 1.0000
69.3700 581.0000 1.0000
69.3900 530.0000 1.0000
69.4100 376.0000 1.0000
69.4300 338.0000 1.0000
69.4500 289.0000 1.0000
69.4700 274.0000 1.0000
69.4900 269.0000 1.0000
69.5100 320.0000 1.0000
69.5300 354.0000 1.0000
69.5500 417.0000 1.0000
69.5700 385.0000 1.0000
69.5900 337.0000 1.0000
69.6100 296.0000 1.0000
69.6300 262.0000 1.0000
69.6500 226.0000 1.0000
69.6700 222.0000 1.0000
69.6900 232.0000 1.0000
69.7100 230.0000 1.0000
69.7300 231.0000 1.0000
69.7500 215.0000 1.0000
69.7700 232.0000 1.0000
69.7900 206.0000 1.0000
69.8100 209.0000 1.0000
69.8300 203.0000 1.0000
69.8500 208.0000 1.0000
69.8700 203.0000 1.0000
69.8900 197.0000 1.0000
69.9100 214.0000 1.0000
69.9300 193.0000 1.0000
69.9500 191.0000 1.0000
69.9700 191.0000 1.0000
69.9900 191.0000 1.0000