5, 143
5.01, 164
5.02, 137
5.03, 184
5.04, 152
5.05, 174
5.06, 149
5.07, 162
5.08, 151
5.09, 151
5.1, 149
5.11, 153
5.12, 161
5.13, 169
5.14, 151
5.15, 166
5.16, 158
5.17, 140
5.18, 152
5.19, 156
5.2, 188
5.21, 152
5.22, 150
5.23, 151
5.24, 155
5.25, 145
5.26, 153
5.27, 125
5.28, 173
5.29, 168
5.3, 165
5.31, 176
5.32, 162
5.33, 175
5.34, 153
5.35, 174
5.36, 175
5.37, 161
5.38, 169
5.39, 141
5.4, 140
5.41, 161
5.42, 151
5.43, 159
5.44, 171
5.45, 145
5.46, 152
5.47, 154
5.48, 148
5.49, 153
5.5, 169
5.51, 152
5.52, 130
5.53, 168
5.54, 181
5.55, 141
5.56, 152
5.57, 153
5.58, 154
5.59, 152
5.6, 168
5.61, 136
5.62, 162
5.63, 164
5.64, 158
5.65, 160
5.66, 170
5.67, 147
5.68, 171
5.69, 138
5.7, 172
5.71, 177
5.72, 182
5.73, 163
5.74, 167
5.75, 146
5.76, 168
5.77, 168
5.78, 167
5.79, 156
5.8, 155
5.81, 137
5.82, 175
5.83, 155
5.84, 143
5.85, 165
5.86, 164
5.87, 143
5.88, 155
5.89, 164
5.9, 154
5.91, 152
5.92, 153
5.93, 165
5.94, 182
5.95, 167
5.96, 164
5.97, 180
5.98, 181
5.99, 149
6, 176
6.01, 156
6.02, 144
6.03, 150
6.04, 160
6.05, 165
6.06, 155
6.07, 183
6.08, 147
6.09, 170
6.1, 172
6.11, 166
6.12, 145
6.13, 182
6.14, 176
6.15, 176
6.16, 160
6.17, 165
6.18, 156
6.19, 162
6.2, 185
6.21, 190
6.22, 182
6.23, 159
6.24, 171
6.25, 166
6.26, 156
6.27, 170
6.28, 166
6.29, 173
6.3, 178
6.31, 143
6.32, 163
6.33, 168
6.34, 168
6.35, 168
6.36, 152
6.37, 172
6.38, 160
6.39, 181
6.4, 172
6.41, 182
6.42, 158
6.43, 193
6.44, 186
6.45, 159
6.46, 159
6.47, 159
6.48, 161
6.49, 161
6.5, 169
6.51, 175
6.52, 184
6.53, 159
6.54, 169
6.55, 166
6.56, 168
6.57, 169
6.58, 155
6.59, 176
6.6, 170
6.61, 177
6.62, 156
6.63, 144
6.64, 166
6.65, 166
6.66, 173
6.67, 170
6.68, 176
6.69, 187
6.7, 164
6.71, 172
6.72, 165
6.73, 175
6.74, 170
6.75, 168
6.76, 166
6.77, 152
6.78, 183
6.79, 174
6.8, 167
6.81, 174
6.82, 172
6.83, 188
6.84, 169
6.85, 154
6.86, 189
6.87, 175
6.88, 191
6.89, 162
6.9, 159
6.91, 167
6.92, 171
6.93, 179
6.94, 194
6.95, 185
6.96, 167
6.97, 154
6.98, 195
6.99, 159
7, 153
7.01, 156
7.02, 150
7.03, 172
7.04, 139
7.05, 176
7.06, 190
7.07, 177
7.08, 185
7.09, 154
7.1, 160
7.11, 163
7.12, 173
7.13, 165
7.14, 155
7.15, 190
7.16, 173
7.17, 192
7.18, 164
7.19, 172
7.2, 201
7.21, 186
7.22, 164
7.23, 174
7.24, 174
7.25, 172
7.26, 167
7.27, 179
7.28, 201
7.29, 178
7.3, 189
7.31, 174
7.32, 178
7.33, 193
7.34, 183
7.35, 175
7.36, 182
7.37, 177
7.38, 195
7.39, 184
7.4, 170
7.41, 158
7.42, 182
7.43, 163
7.44, 181
7.45, 195
7.46, 203
7.47, 179
7.48, 204
7.49, 190
7.5, 173
7.51, 207
7.52, 179
7.53, 186
7.54, 166
7.55, 202
7.56, 194
7.57, 186
7.58, 177
7.59, 176
7.6, 183
7.61, 177
7.62, 200
7.63, 184
7.64, 201
7.65, 177
7.66, 188
7.67, 159
7.68, 188
7.69, 159
7.7, 178
7.71, 177
7.72, 163
7.73, 184
7.74, 185
7.75, 193
7.76, 198
7.77, 211
7.78, 209
7.79, 168
7.8, 186
7.81, 188
7.82, 166
7.83, 212
7.84, 192
7.85, 188
7.86, 178
7.87, 195
7.88, 179
7.89, 182
7.9, 182
7.91, 199
7.92, 176
7.93, 196
7.94, 167
7.95, 192
7.96, 156
7.97, 180
7.98, 206
7.99, 183
8, 178
8.01, 191
8.02, 174
8.03, 181
8.04, 196
8.05, 188
8.06, 174
8.07, 173
8.08, 196
8.09, 166
8.1, 182
8.11, 191
8.12, 167
8.13, 168
8.14, 190
8.15, 190
8.16, 188
8.17, 210
8.18, 196
8.19, 197
8.2, 191
8.21, 195
8.22, 181
8.23, 179
8.24, 176
8.25, 201
8.26, 188
8.27, 199
8.28, 211
8.29, 195
8.3, 186
8.31, 192
8.32, 183
8.33, 179
8.34, 204
8.35, 190
8.36, 182
8.37, 189
8.38, 195
8.39, 178
8.4, 202
8.41, 210
8.42, 176
8.43, 210
8.44, 184
8.45, 201
8.46, 193
8.47, 179
8.48, 181
8.49, 190
8.5, 201
8.51, 180
8.52, 152
8.53, 175
8.54, 165
8.55, 166
8.56, 174
8.57, 189
8.58, 176
8.59, 180
8.6, 161
8.61, 186
8.62, 180
8.63, 188
8.64, 174
8.65, 177
8.66, 191
8.67, 196
8.68, 189
8.69, 178
8.7, 159
8.71, 182
8.72, 197
8.73, 169
8.74, 179
8.75, 189
8.76, 178
8.77, 170
8.78, 180
8.79, 177
8.8, 186
8.81, 178
8.82, 183
8.83, 192
8.84, 182
8.85, 169
8.86, 171
8.87, 153
8.88, 170
8.89, 179
8.9, 198
8.91, 162
8.92, 174
8.93, 187
8.94, 192
8.95, 211
8.96, 202
8.97, 193
8.98, 190
8.99, 184
9, 173
9.01, 173
9.02, 210
9.03, 176
9.04, 173
9.05, 197
9.06, 170
9.07, 178
9.08, 186
9.09, 189
9.1, 202
9.11, 179
9.12, 182
9.13, 178
9.14, 195
9.15, 174
9.16, 159
9.17, 194
9.18, 197
9.19, 188
9.2, 193
9.21, 175
9.22, 202
9.23, 185
9.24, 171
9.25, 183
9.26, 177
9.27, 193
9.28, 179
9.29, 182
9.3, 186
9.31, 182
9.32, 192
9.33, 201
9.34, 187
9.35, 192
9.36, 200
9.37, 206
9.38, 195
9.39, 155
9.4, 193
9.41, 175
9.42, 175
9.43, 194
9.44, 197
9.45, 188
9.46, 202
9.47, 174
9.48, 194
9.49, 216
9.5, 178
9.51, 184
9.52, 195
9.53, 186
9.54, 185
9.55, 198
9.56, 180
9.57, 183
9.58, 158
9.59, 192
9.6, 209
9.61, 190
9.62, 186
9.63, 196
9.64, 188
9.65, 178
9.66, 188
9.67, 189
9.68, 165
9.69, 176
9.7, 200
9.71, 199
9.72, 183
9.73, 183
9.74, 199
9.75, 191
9.76, 211
9.77, 188
9.78, 169
9.79, 188
9.8, 171
9.81, 212
9.82, 189
9.83, 197
9.84, 180
9.85, 229
9.86, 199
9.87, 183
9.88, 179
9.89, 181
9.9, 199
9.91, 172
9.92, 185
9.93, 192
9.94, 184
9.95, 206
9.96, 181
9.97, 191
9.98, 202
9.99, 211
10, 192
10.01, 181
10.02, 174
10.03, 212
10.04, 175
10.05, 196
10.06, 207
10.07, 178
10.08, 179
10.09, 198
10.1, 195
10.11, 211
10.12, 194
10.13, 189
10.14, 172
10.15, 181
10.16, 193
10.17, 169
10.18, 186
10.19, 191
10.2, 191
10.21, 207
10.22, 200
10.23, 188
10.24, 190
10.25, 178
10.26, 192
10.27, 180
10.28, 180
10.29, 178
10.3, 200
10.31, 194
10.32, 183
10.33, 196
10.34, 217
10.35, 209
10.36, 169
10.37, 192
10.38, 177
10.39, 186
10.4, 191
10.41, 198
10.42, 206
10.43, 201
10.44, 200
10.45, 171
10.46, 186
10.47, 177
10.48, 175
10.49, 169
10.5, 204
10.51, 192
10.52, 170
10.53, 190
10.54, 165
10.55, 194
10.56, 172
10.57, 172
10.58, 200
10.59, 190
10.6, 175
10.61, 174
10.62, 166
10.63, 157
10.64, 167
10.65, 189
10.66, 196
10.67, 197
10.68, 194
10.69, 206
10.7, 176
10.71, 182
10.72, 184
10.73, 184
10.74, 208
10.75, 171
10.76, 195
10.77, 167
10.78, 210
10.79, 192
10.8, 200
10.81, 166
10.82, 198
10.83, 197
10.84, 199
10.85, 202
10.86, 207
10.87, 203
10.88, 175
10.89, 165
10.9, 193
10.91, 186
10.92, 208
10.93, 189
10.94, 202
10.95, 206
10.96, 189
10.97, 194
10.98, 206
10.99, 178
11, 193
11.01, 185
11.02, 168
11.03, 195
11.04, 198
11.05, 207
11.06, 181
11.07, 196
11.08, 176
11.09, 188
11.1, 173
11.11, 207
11.12, 190
11.13, 188
11.14, 189
11.15, 199
11.16, 200
11.17, 193
11.18, 208
11.19, 213
11.2, 165
11.21, 167
11.22, 197
11.23, 200
11.24, 188
11.25, 202
11.26, 192
11.27, 202
11.28, 186
11.29, 196
11.3, 209
11.31, 223
11.32, 218
11.33, 203
11.34, 201
11.35, 210
11.36, 191
11.37, 192
11.38, 184
11.39, 173
11.4, 196
11.41, 182
11.42, 188
11.43, 198
11.44, 178
11.45, 198
11.46, 204
11.47, 171
11.48, 217
11.49, 192
11.5, 188
11.51, 189
11.52, 191
11.53, 192
11.54, 181
11.55, 190
11.56, 185
11.57, 218
11.58, 193
11.59, 192
11.6, 173
11.61, 217
11.62, 202
11.63, 189
11.64, 194
11.65, 220
11.66, 197
11.67, 195
11.68, 191
11.69, 196
11.7, 211
11.71, 191
11.72, 200
11.73, 206
11.74, 181
11.75, 182
11.76, 188
11.77, 213
11.78, 197
11.79, 213
11.8, 198
11.81, 197
11.82, 217
11.83, 183
11.84, 189
11.85, 185
11.86, 208
11.87, 205
11.88, 186
11.89, 189
11.9, 188
11.91, 216
11.92, 183
11.93, 203
11.94, 181
11.95, 208
11.96, 192
11.97, 192
11.98, 203
11.99, 213
12, 212
12.01, 208
12.02, 208
12.03, 210
12.04, 194
12.05, 213
12.06, 198
12.07, 219
12.08, 224
12.09, 216
12.1, 208
12.11, 186
12.12, 198
12.13, 188
12.14, 199
12.15, 178
12.16, 220
12.17, 217
12.18, 194
12.19, 228
12.2, 235
12.21, 214
12.22, 194
12.23, 218
12.24, 202
12.25, 180
12.26, 216
12.27, 200
12.28, 215
12.29, 218
12.3, 195
12.31, 201
12.32, 224
12.33, 201
12.34, 207
12.35, 186
12.36, 247
12.37, 202
12.38, 214
12.39, 182
12.4, 225
12.41, 198
12.42, 201
12.43, 224
12.44, 222
12.45, 207
12.46, 203
12.47, 222
12.48, 196
12.49, 202
12.5, 199
12.51, 183
12.52, 192
12.53, 219
12.54, 190
12.55, 202
12.56, 189
12.57, 178
12.58, 223
12.59, 196
12.6, 198
12.61, 225
12.62, 222
12.63, 204
12.64, 209
12.65, 198
12.66, 200
12.67, 187
12.68, 186
12.69, 220
12.7, 200
12.71, 217
12.72, 215
12.73, 203
12.74, 210
12.75, 239
12.76, 219
12.77, 210
12.78, 209
12.79, 214
12.8, 224
12.81, 221
12.82, 186
12.83, 181
12.84, 213
12.85, 195
12.86, 211
12.87, 242
12.88, 211
12.89, 193
12.9, 227
12.91, 201
12.92, 214
12.93, 228
12.94, 203
12.95, 199
12.96, 191
12.97, 215
12.98, 212
12.99, 211
13, 211
13.01, 223
13.02, 201
13.03, 188
13.04, 177
13.05, 228
13.06, 231
13.07, 219
13.08, 208
13.09, 225
13.1, 191
13.11, 206
13.12, 201
13.13, 188
13.14, 204
13.15, 199
13.16, 218
13.17, 212
13.18, 212
13.19, 212
13.2, 236
13.21, 229
13.22, 225
13.23, 234
13.24, 214
13.25, 241
13.26, 208
13.27, 209
13.28, 190
13.29, 190
13.3, 197
13.31, 193
13.32, 197
13.33, 220
13.34, 179
13.35, 191
13.36, 222
13.37, 199
13.38, 224
13.39, 200
13.4, 204
13.41, 208
13.42, 225
13.43, 228
13.44, 218
13.45, 191
13.46, 228
13.47, 193
13.48, 197
13.49, 219
13.5, 206
13.51, 206
13.52, 188
13.53, 209
13.54, 231
13.55, 193
13.56, 227
13.57, 210
13.58, 176
13.59, 208
13.6, 209
13.61, 192
13.62, 223
13.63, 191
13.64, 216
13.65, 197
13.66, 217
13.67, 195
13.68, 204
13.69, 210
13.7, 202
13.71, 245
13.72, 191
13.73, 228
13.74, 192
13.75, 221
13.76, 217
13.77, 191
13.78, 200
13.79, 193
13.8, 241
13.81, 224
13.82, 232
13.83, 186
13.84, 213
13.85, 235
13.86, 204
13.87, 214
13.88, 183
13.89, 223
13.9, 225
13.91, 226
13.92, 208
13.93, 191
13.94, 209
13.95, 219
13.96, 181
13.97, 198
13.98, 200
13.99, 217
14, 220
14.01, 213
14.02, 219
14.03, 222
14.04, 216
14.05, 196
14.06, 224
14.07, 195
14.08, 210
14.09, 213
14.1, 187
14.11, 211
14.12, 213
14.13, 203
14.14, 208
14.15, 202
14.16, 206
14.17, 194
14.18, 185
14.19, 245
14.2, 216
14.21, 235
14.22, 219
14.23, 203
14.24, 246
14.25, 198
14.26, 197
14.27, 208
14.28, 205
14.29, 227
14.3, 203
14.31, 225
14.32, 214
14.33, 204
14.34, 210
14.35, 200
14.36, 202
14.37, 192
14.38, 232
14.39, 236
14.4, 217
14.41, 217
14.42, 213
14.43, 211
14.44, 226
14.45, 205
14.46, 241
14.47, 210
14.48, 206
14.49, 197
14.5, 225
14.51, 216
14.52, 195
14.53, 232
14.54, 177
14.55, 190
14.56, 223
14.57, 194
14.58, 182
14.59, 214
14.6, 185
14.61, 227
14.62, 233
14.63, 187
14.64, 167
14.65, 236
14.66, 236
14.67, 205
14.68, 227
14.69, 208
14.7, 220
14.71, 230
14.72, 214
14.73, 207
14.74, 199
14.75, 197
14.76, 205
14.77, 233
14.78, 207
14.79, 205
14.8, 208
14.81, 206
14.82, 183
14.83, 235
14.84, 211
14.85, 182
14.86, 211
14.87, 212
14.88, 189
14.89, 219
14.9, 196
14.91, 203
14.92, 207
14.93, 235
14.94, 219
14.95, 197
14.96, 203
14.97, 216
14.98, 211
14.99, 242
15, 203
15.01, 233
15.02, 212
15.03, 216
15.04, 225
15.05, 199
15.06, 225
15.07, 207
15.08, 201
15.09, 239
15.1, 218
15.11, 206
15.12, 205
15.13, 219
15.14, 225
15.15, 202
15.16, 214
15.17, 206
15.18, 200
15.19, 221
15.2, 227
15.21, 202
15.22, 219
15.23, 198
15.24, 212
15.25, 210
15.26, 205
15.27, 216
15.28, 219
15.29, 205
15.3, 201
15.31, 217
15.32, 204
15.33, 208
15.34, 214
15.35, 213
15.36, 217
15.37, 221
15.38, 206
15.39, 215
15.4, 224
15.41, 206
15.42, 206
15.43, 181
15.44, 215
15.45, 241
15.46, 207
15.47, 195
15.48, 202
15.49, 235
15.5, 241
15.51, 198
15.52, 201
15.53, 200
15.54, 210
15.55, 217
15.56, 221
15.57, 225
15.58, 205
15.59, 215
15.6, 196
15.61, 202
15.62, 199
15.63, 232
15.64, 214
15.65, 197
15.66, 227
15.67, 228
15.68, 234
15.69, 205
15.7, 204
15.71, 222
15.72, 198
15.73, 222
15.74, 233
15.75, 237
15.76, 219
15.77, 199
15.78, 199
15.79, 202
15.8, 224
15.81, 216
15.82, 216
15.83, 217
15.84, 200
15.85, 194
15.86, 242
15.87, 215
15.88, 214
15.89, 229
15.9, 203
15.91, 197
15.92, 220
15.93, 203
15.94, 219
15.95, 204
15.96, 200
15.97, 219
15.98, 228
15.99, 222
16, 215
16.01, 212
16.02, 199
16.03, 216
16.04, 191
16.05, 212
16.06, 248
16.07, 201
16.08, 233
16.09, 220
16.1, 227
16.11, 205
16.12, 243
16.13, 196
16.14, 211
16.15, 218
16.16, 217
16.17, 210
16.18, 226
16.19, 223
16.2, 208
16.21, 218
16.22, 211
16.23, 208
16.24, 203
16.25, 239
16.26, 223
16.27, 203
16.28, 240
16.29, 213
16.3, 206
16.31, 208
16.32, 209
16.33, 241
16.34, 205
16.35, 209
16.36, 199
16.37, 204
16.38, 222
16.39, 236
16.4, 200
16.41, 227
16.42, 206
16.43, 208
16.44, 200
16.45, 228
16.46, 209
16.47, 215
16.48, 229
16.49, 228
16.5, 204
16.51, 233
16.52, 233
16.53, 201
16.54, 226
16.55, 206
16.56, 204
16.57, 193
16.58, 225
16.59, 210
16.6, 201
16.61, 226
16.62, 207
16.63, 206
16.64, 239
16.65, 196
16.66, 222
16.67, 215
16.68, 204
16.69, 213
16.7, 237
16.71, 229
16.72, 208
16.73, 210
16.74, 210
16.75, 192
16.76, 218
16.77, 216
16.78, 213
16.79, 212
16.8, 229
16.81, 221
16.82, 258
16.83, 240
16.84, 236
16.85, 215
16.86, 230
16.87, 218
16.88, 227
16.89, 224
16.9, 202
16.91, 234
16.92, 227
16.93, 227
16.94, 205
16.95, 222
16.96, 231
16.97, 221
16.98, 197
16.99, 232
17, 243
17.01, 212
17.02, 179
17.03, 222
17.04, 202
17.05, 206
17.06, 227
17.07, 213
17.08, 221
17.09, 211
17.1, 209
17.11, 200
17.12, 223
17.13, 228
17.14, 234
17.15, 226
17.16, 220
17.17, 219
17.18, 209
17.19, 185
17.2, 229
17.21, 225
17.22, 223
17.23, 223
17.24, 202
17.25, 229
17.26, 222
17.27, 189
17.28, 208
17.29, 202
17.3, 203
17.31, 205
17.32, 216
17.33, 228
17.34, 194
17.35, 237
17.36, 197
17.37, 193
17.38, 207
17.39, 231
17.4, 223
17.41, 208
17.42, 216
17.43, 208
17.44, 221
17.45, 236
17.46, 250
17.47, 222
17.48, 226
17.49, 218
17.5, 220
17.51, 192
17.52, 225
17.53, 205
17.54, 235
17.55, 205
17.56, 228
17.57, 207
17.58, 213
17.59, 247
17.6, 235
17.61, 216
17.62, 204
17.63, 243
17.64, 220
17.65, 239
17.66, 227
17.67, 240
17.68, 216
17.69, 228
17.7, 203
17.71, 239
17.72, 230
17.73, 231
17.74, 245
17.75, 225
17.76, 227
17.77, 228
17.78, 220
17.79, 200
17.8, 197
17.81, 227
17.82, 215
17.83, 213
17.84, 236
17.85, 205
17.86, 213
17.87, 234
17.88, 219
17.89, 221
17.9, 207
17.91, 217
17.92, 233
17.93, 224
17.94, 252
17.95, 232
17.96, 224
17.97, 230
17.98, 227
17.99, 243
18, 208
18.01, 204
18.02, 230
18.03, 192
18.04, 238
18.05, 231
18.06, 221
18.07, 207
18.08, 218
18.09, 221
18.1, 223
18.11, 215
18.12, 228
18.13, 245
18.14, 257
18.15, 214
18.16, 187
18.17, 219
18.18, 229
18.19, 241
18.2, 252
18.21, 236
18.22, 234
18.23, 224
18.24, 254
18.25, 227
18.26, 216
18.27, 246
18.28, 240
18.29, 258
18.3, 297
18.31, 258
18.32, 238
18.33, 231
18.34, 259
18.35, 242
18.36, 249
18.37, 254
18.38, 230
18.39, 231
18.4, 233
18.41, 213
18.42, 222
18.43, 235
18.44, 224
18.45, 256
18.46, 204
18.47, 221
18.48, 213
18.49, 215
18.5, 233
18.51, 224
18.52, 257
18.53, 244
18.54, 253
18.55, 211
18.56, 206
18.57, 203
18.58, 213
18.59, 221
18.6, 250
18.61, 218
18.62, 221
18.63, 214
18.64, 223
18.65, 202
18.66, 237
18.67, 209
18.68, 230
18.69, 218
18.7, 230
18.71, 233
18.72, 233
18.73, 198
18.74, 219
18.75, 199
18.76, 219
18.77, 222
18.78, 204
18.79, 220
18.8, 205
18.81, 222
18.82, 222
18.83, 224
18.84, 232
18.85, 219
18.86, 220
18.87, 223
18.88, 225
18.89, 224
18.9, 220
18.91, 215
18.92, 208
18.93, 204
18.94, 201
18.95, 229
18.96, 217
18.97, 235
18.98, 192
18.99, 227
19, 220
19.01, 224
19.02, 202
19.03, 191
19.04, 265
19.05, 224
19.06, 224
19.07, 229
19.08, 241
19.09, 241
19.1, 237
19.11, 226
19.12, 240
19.13, 210
19.14, 229
19.15, 216
19.16, 239
19.17, 236
19.18, 214
19.19, 234
19.2, 262
19.21, 221
19.22, 182
19.23, 239
19.24, 208
19.25, 243
19.26, 215
19.27, 238
19.28, 218
19.29, 216
19.3, 236
19.31, 217
19.32, 266
19.33, 231
19.34, 229
19.35, 215
19.36, 221
19.37, 262
19.38, 227
19.39, 211
19.4, 235
19.41, 252
19.42, 221
19.43, 202
19.44, 232
19.45, 225
19.46, 211
19.47, 222
19.48, 246
19.49, 216
19.5, 231
19.51, 222
19.52, 217
19.53, 223
19.54, 213
19.55, 257
19.56, 265
19.57, 231
19.58, 250
19.59, 210
19.6, 212
19.61, 222
19.62, 233
19.63, 206
19.64, 212
19.65, 212
19.66, 224
19.67, 207
19.68, 195
19.69, 232
19.7, 232
19.71, 232
19.72, 248
19.73, 241
19.74, 253
19.75, 222
19.76, 215
19.77, 218
19.78, 200
19.79, 226
19.8, 250
19.81, 213
19.82, 199
19.83, 219
19.84, 238
19.85, 214
19.86, 219
19.87, 213
19.88, 224
19.89, 227
19.9, 228
19.91, 214
19.92, 234
19.93, 234
19.94, 229
19.95, 237
19.96, 201
19.97, 232
19.98, 224
19.99, 230
20, 200
20.01, 231
20.02, 221
20.03, 211
20.04, 219
20.05, 227
20.06, 246
20.07, 208
20.08, 201
20.09, 235
20.1, 258
20.11, 230
20.12, 227
20.13, 248
20.14, 218
20.15, 214
20.16, 229
20.17, 210
20.18, 213
20.19, 235
20.2, 205
20.21, 255
20.22, 234
20.23, 237
20.24, 215
20.25, 217
20.26, 226
20.27, 240
20.28, 214
20.29, 225
20.3, 205
20.31, 217
20.32, 231
20.33, 230
20.34, 231
20.35, 202
20.36, 242
20.37, 234
20.38, 192
20.39, 217
20.4, 233
20.41, 246
20.42, 216
20.43, 225
20.44, 243
20.45, 216
20.46, 214
20.47, 260
20.48, 220
20.49, 223
20.5, 194
20.51, 203
20.52, 215
20.53, 202
20.54, 228
20.55, 218
20.56, 218
20.57, 237
20.58, 220
20.59, 209
20.6, 236
20.61, 201
20.62, 256
20.63, 214
20.64, 229
20.65, 250
20.66, 234
20.67, 255
20.68, 255
20.69, 217
20.7, 204
20.71, 239
20.72, 207
20.73, 221
20.74, 231
20.75, 217
20.76, 225
20.77, 224
20.78, 230
20.79, 236
20.8, 217
20.81, 211
20.82, 225
20.83, 229
20.84, 238
20.85, 258
20.86, 264
20.87, 223
20.88, 234
20.89, 243
20.9, 223
20.91, 227
20.92, 203
20.93, 231
20.94, 252
20.95, 213
20.96, 226
20.97, 273
20.98, 247
20.99, 232
21, 216
21.01, 213
21.02, 222
21.03, 215
21.04, 241
21.05, 265
21.06, 241
21.07, 231
21.08, 197
21.09, 249
21.1, 234
21.11, 223
21.12, 236
21.13, 221
21.14, 228
21.15, 234
21.16, 231
21.17, 231
21.18, 250
21.19, 258
21.2, 239
21.21, 230
21.22, 236
21.23, 229
21.24, 231
21.25, 244
21.26, 234
21.27, 195
21.28, 257
21.29, 211
21.3, 215
21.31, 232
21.32, 226
21.33, 261
21.34, 251
21.35, 243
21.36, 214
21.37, 255
21.38, 233
21.39, 202
21.4, 216
21.41, 241
21.42, 217
21.43, 208
21.44, 235
21.45, 245
21.46, 222
21.47, 238
21.48, 214
21.49, 258
21.5, 220
21.51, 209
21.52, 254
21.53, 216
21.54, 253
21.55, 223
21.56, 255
21.57, 238
21.58, 226
21.59, 231
21.6, 263
21.61, 218
21.62, 213
21.63, 224
21.64, 215
21.65, 244
21.66, 222
21.67, 208
21.68, 261
21.69, 206
21.7, 214
21.71, 241
21.72, 222
21.73, 218
21.74, 219
21.75, 226
21.76, 219
21.77, 210
21.78, 222
21.79, 204
21.8, 235
21.81, 262
21.82, 248
21.83, 254
21.84, 206
21.85, 231
21.86, 240
21.87, 222
21.88, 255
21.89, 207
21.9, 222
21.91, 227
21.92, 223
21.93, 217
21.94, 252
21.95, 230
21.96, 229
21.97, 267
21.98, 230
21.99, 240
22, 210
22.01, 265
22.02, 236
22.03, 227
22.04, 242
22.05, 258
22.06, 220
22.07, 218
22.08, 208
22.09, 258
22.1, 255
22.11, 228
22.12, 224
22.13, 225
22.14, 242
22.15, 231
22.16, 254
22.17, 225
22.18, 237
22.19, 238
22.2, 238
22.21, 247
22.22, 214
22.23, 222
22.24, 232
22.25, 219
22.26, 228
22.27, 236
22.28, 238
22.29, 241
22.3, 228
22.31, 240
22.32, 234
22.33, 256
22.34, 214
22.35, 253
22.36, 227
22.37, 224
22.38, 219
22.39, 234
22.4, 238
22.41, 231
22.42, 225
22.43, 226
22.44, 260
22.45, 223
22.46, 224
22.47, 247
22.48, 226
22.49, 242
22.5, 239
22.51, 223
22.52, 241
22.53, 220
22.54, 236
22.55, 234
22.56, 210
22.57, 225
22.58, 224
22.59, 251
22.6, 229
22.61, 251
22.62, 217
22.63, 233
22.64, 251
22.65, 206
22.66, 246
22.67, 212
22.68, 218
22.69, 238
22.7, 231
22.71, 237
22.72, 198
22.73, 222
22.74, 268
22.75, 239
22.76, 234
22.77, 219
22.78, 245
22.79, 224
22.8, 264
22.81, 248
22.82, 252
22.83, 225
22.84, 264
22.85, 257
22.86, 233
22.87, 245
22.88, 239
22.89, 216
22.9, 237
22.91, 232
22.92, 239
22.93, 245
22.94, 233
22.95, 238
22.96, 205
22.97, 251
22.98, 234
22.99, 247
23, 233
23.01, 237
23.02, 266
23.03, 234
23.04, 229
23.05, 239
23.06, 206
23.07, 239
23.08, 243
23.09, 242
23.1, 259
23.11, 211
23.12, 257
23.13, 239
23.14, 221
23.15, 232
23.16, 256
23.17, 268
23.18, 238
23.19, 220
23.2, 221
23.21, 261
23.22, 250
23.23, 227
23.24, 230
23.25, 205
23.26, 228
23.27, 218
23.28, 226
23.29, 248
23.3, 202
23.31, 215
23.32, 200
23.33, 267
23.34, 228
23.35, 231
23.36, 228
23.37, 245
23.38, 252
23.39, 250
23.4, 228
23.41, 232
23.42, 218
23.43, 251
23.44, 226
23.45, 234
23.46, 246
23.47, 242
23.48, 245
23.49, 212
23.5, 211
23.51, 246
23.52, 224
23.53, 222
23.54, 225
23.55, 263
23.56, 242
23.57, 238
23.58, 229
23.59, 243
23.6, 230
23.61, 232
23.62, 222
23.63, 240
23.64, 252
23.65, 225
23.66, 236
23.67, 233
23.68, 262
23.69, 196
23.7, 216
23.71, 264
23.72, 214
23.73, 238
23.74, 247
23.75, 263
23.76, 230
23.77, 217
23.78, 246
23.79, 244
23.8, 265
23.81, 233
23.82, 205
23.83, 225
23.84, 256
23.85, 226
23.86, 234
23.87, 275
23.88, 240
23.89, 224
23.9, 237
23.91, 248
23.92, 256
23.93, 238
23.94, 256
23.95, 217
23.96, 238
23.97, 229
23.98, 247
23.99, 266
24, 228
24.01, 240
24.02, 239
24.03, 217
24.04, 203
24.05, 254
24.06, 261
24.07, 251
24.08, 235
24.09, 250
24.1, 235
24.11, 259
24.12, 215
24.13, 255
24.14, 226
24.15, 242
24.16, 218
24.17, 242
24.18, 236
24.19, 221
24.2, 237
24.21, 244
24.22, 221
24.23, 238
24.24, 224
24.25, 223
24.26, 243
24.27, 223
24.28, 213
24.29, 232
24.3, 256
24.31, 237
24.32, 248
24.33, 243
24.34, 253
24.35, 220
24.36, 254
24.37, 236
24.38, 244
24.39, 258
24.4, 216
24.41, 248
24.42, 237
24.43, 230
24.44, 238
24.45, 221
24.46, 244
24.47, 230
24.48, 270
24.49, 245
24.5, 250
24.51, 238
24.52, 226
24.53, 236
24.54, 228
24.55, 238
24.56, 246
24.57, 259
24.58, 216
24.59, 214
24.6, 226
24.61, 254
24.62, 265
24.63, 244
24.64, 247
24.65, 224
24.66, 211
24.67, 243
24.68, 224
24.69, 238
24.7, 261
24.71, 236
24.72, 237
24.73, 201
24.74, 239
24.75, 268
24.76, 228
24.77, 257
24.78, 227
24.79, 226
24.8, 235
24.81, 238
24.82, 248
24.83, 236
24.84, 203
24.85, 233
24.86, 239
24.87, 236
24.88, 232
24.89, 261
24.9, 269
24.91, 233
24.92, 203
24.93, 252
24.94, 235
24.95, 220
24.96, 216
24.97, 252
24.98, 231
24.99, 253
25, 242
25.01, 232
25.02, 229
25.03, 252
25.04, 221
25.05, 246
25.06, 214
25.07, 252
25.08, 214
25.09, 255
25.1, 232
25.11, 203
25.12, 205
25.13, 217
25.14, 220
25.15, 246
25.16, 238
25.17, 258
25.18, 244
25.19, 257
25.2, 230
25.21, 242
25.22, 256
25.23, 240
25.24, 241
25.25, 236
25.26, 255
25.27, 251
25.28, 212
25.29, 256
25.3, 234
25.31, 225
25.32, 217
25.33, 207
25.34, 228
25.35, 246
25.36, 248
25.37, 219
25.38, 252
25.39, 252
25.4, 226
25.41, 235
25.42, 250
25.43, 260
25.44, 247
25.45, 234
25.46, 246
25.47, 241
25.48, 235
25.49, 240
25.5, 213
25.51, 263
25.52, 251
25.53, 233
25.54, 257
25.55, 223
25.56, 251
25.57, 219
25.58, 224
25.59, 260
25.6, 203
25.61, 245
25.62, 223
25.63, 251
25.64, 235
25.65, 249
25.66, 248
25.67, 224
25.68, 257
25.69, 230
25.7, 260
25.71, 262
25.72, 233
25.73, 260
25.74, 226
25.75, 233
25.76, 237
25.77, 229
25.78, 219
25.79, 202
25.8, 269
25.81, 248
25.82, 224
25.83, 239
25.84, 245
25.85, 242
25.86, 237
25.87, 224
25.88, 252
25.89, 254
25.9, 229
25.91, 233
25.92, 240
25.93, 266
25.94, 251
25.95, 249
25.96, 216
25.97, 235
25.98, 245
25.99, 232
26, 237
26.01, 218
26.02, 262
26.03, 230
26.04, 234
26.05, 249
26.06, 229
26.07, 240
26.08, 281
26.09, 254
26.1, 231
26.11, 212
26.12, 233
26.13, 223
26.14, 246
26.15, 205
26.16, 247
26.17, 234
26.18, 270
26.19, 223
26.2, 254
26.21, 244
26.22, 225
26.23, 254
26.24, 247
26.25, 256
26.26, 240
26.27, 242
26.28, 246
26.29, 218
26.3, 218
26.31, 226
26.32, 242
26.33, 255
26.34, 260
26.35, 253
26.36, 247
26.37, 230
26.38, 241
26.39, 234
26.4, 222
26.41, 243
26.42, 254
26.43, 237
26.44, 251
26.45, 227
26.46, 241
26.47, 231
26.48, 234
26.49, 226
26.5, 236
26.51, 284
26.52, 231
26.53, 232
26.54, 237
26.55, 223
26.56, 219
26.57, 219
26.58, 241
26.59, 245
26.6, 233
26.61, 237
26.62, 257
26.63, 224
26.64, 244
26.65, 253
26.66, 271
26.67, 235
26.68, 254
26.69, 251
26.7, 236
26.71, 245
26.72, 242
26.73, 222
26.74, 220
26.75, 221
26.76, 207
26.77, 244
26.78, 237
26.79, 231
26.8, 213
26.81, 209
26.82, 240
26.83, 256
26.84, 239
26.85, 236
26.86, 219
26.87, 230
26.88, 232
26.89, 240
26.9, 230
26.91, 243
26.92, 257
26.93, 236
26.94, 238
26.95, 256
26.96, 238
26.97, 261
26.98, 246
26.99, 263
27, 254
27.01, 244
27.02, 227
27.03, 245
27.04, 276
27.05, 241
27.06, 235
27.07, 253
27.08, 232
27.09, 267
27.1, 245
27.11, 229
27.12, 216
27.13, 217
27.14, 235
27.15, 246
27.16, 238
27.17, 256
27.18, 244
27.19, 215
27.2, 245
27.21, 253
27.22, 226
27.23, 253
27.24, 231
27.25, 237
27.26, 243
27.27, 230
27.28, 251
27.29, 254
27.3, 226
27.31, 247
27.32, 245
27.33, 248
27.34, 234
27.35, 238
27.36, 225
27.37, 217
27.38, 232
27.39, 252
27.4, 238
27.41, 229
27.42, 228
27.43, 245
27.44, 243
27.45, 255
27.46, 230
27.47, 227
27.48, 252
27.49, 229
27.5, 242
27.51, 246
27.52, 246
27.53, 227
27.54, 239
27.55, 224
27.56, 228
27.57, 254
27.58, 235
27.59, 233
27.6, 218
27.61, 243
27.62, 253
27.63, 256
27.64, 239
27.65, 245
27.66, 264
27.67, 231
27.68, 268
27.69, 247
27.7, 243
27.71, 244
27.72, 258
27.73, 250
27.74, 230
27.75, 232
27.76, 249
27.77, 274
27.78, 253
27.79, 215
27.8, 228
27.81, 218
27.82, 245
27.83, 244
27.84, 240
27.85, 229
27.86, 248
27.87, 231
27.88, 268
27.89, 231
27.9, 232
27.91, 256
27.92, 231
27.93, 232
27.94, 237
27.95, 260
27.96, 240
27.97, 228
27.98, 221
27.99, 250
28, 220
28.01, 245
28.02, 245
28.03, 255
28.04, 259
28.05, 264
28.06, 252
28.07, 252
28.08, 215
28.09, 222
28.1, 229
28.11, 248
28.12, 264
28.13, 229
28.14, 245
28.15, 235
28.16, 259
28.17, 233
28.18, 271
28.19, 210
28.2, 222
28.21, 222
28.22, 233
28.23, 232
28.24, 239
28.25, 228
28.26, 227
28.27, 243
28.28, 252
28.29, 254
28.3, 243
28.31, 256
28.32, 243
28.33, 243
28.34, 260
28.35, 276
28.36, 258
28.37, 259
28.38, 229
28.39, 266
28.4, 259
28.41, 246
28.42, 219
28.43, 258
28.44, 231
28.45, 236
28.46, 230
28.47, 263
28.48, 234
28.49, 243
28.5, 249
28.51, 232
28.52, 220
28.53, 265
28.54, 251
28.55, 246
28.56, 238
28.57, 279
28.58, 265
28.59, 252
28.6, 261
28.61, 249
28.62, 251
28.63, 236
28.64, 239
28.65, 279
28.66, 226
28.67, 260
28.68, 248
28.69, 231
28.7, 235
28.71, 234
28.72, 259
28.73, 250
28.74, 237
28.75, 237
28.76, 261
28.77, 255
28.78, 261
28.79, 265
28.8, 236
28.81, 251
28.82, 258
28.83, 196
28.84, 265
28.85, 270
28.86, 225
28.87, 233
28.88, 248
28.89, 254
28.9, 259
28.91, 232
28.92, 217
28.93, 236
28.94, 245
28.95, 269
28.96, 249
28.97, 265
28.98, 225
28.99, 231
29, 237
29.01, 221
29.02, 224
29.03, 262
29.04, 260
29.05, 238
29.06, 218
29.07, 225
29.08, 259
29.09, 253
29.1, 241
29.11, 250
29.12, 232
29.13, 217
29.14, 274
29.15, 251
29.16, 270
29.17, 247
29.18, 241
29.19, 237
29.2, 219
29.21, 251
29.22, 237
29.23, 252
29.24, 245
29.25, 254
29.26, 241
29.27, 254
29.28, 236
29.29, 229
29.3, 242
29.31, 274
29.32, 259
29.33, 259
29.34, 258
29.35, 234
29.36, 295
29.37, 251
29.38, 226
29.39, 248
29.4, 239
29.41, 240
29.42, 234
29.43, 236
29.44, 221
29.45, 232
29.46, 251
29.47, 231
29.48, 250
29.49, 213
29.5, 255
29.51, 246
29.52, 249
29.53, 257
29.54, 258
29.55, 236
29.56, 252
29.57, 245
29.58, 237
29.59, 268
29.6, 244
29.61, 269
29.62, 241
29.63, 264
29.64, 233
29.65, 252
29.66, 241
29.67, 258
29.68, 250
29.69, 253
29.7, 238
29.71, 253
29.72, 235
29.73, 238
29.74, 254
29.75, 239
29.76, 248
29.77, 211
29.78, 245
29.79, 248
29.8, 248
29.81, 231
29.82, 248
29.83, 235
29.84, 244
29.85, 244
29.86, 252
29.87, 274
29.88, 270
29.89, 260
29.9, 255
29.91, 281
29.92, 249
29.93, 257
29.94, 279
29.95, 279
29.96, 259
29.97, 285
29.98, 239
29.99, 250
30, 279
30.01, 267
30.02, 279
30.03, 307
30.04, 309
30.05, 318
30.06, 347
30.07, 384
30.08, 387
30.09, 381
30.1, 414
30.11, 342
30.12, 346
30.13, 324
30.14, 338
30.15, 334
30.16, 319
30.17, 342
30.18, 319
30.19, 288
30.2, 286
30.21, 298
30.22, 279
30.23, 256
30.24, 270
30.25, 268
30.26, 226
30.27, 281
30.28, 231
30.29, 255
30.3, 277
30.31, 243
30.32, 247
30.33, 251
30.34, 220
30.35, 268
30.36, 269
30.37, 267
30.38, 272
30.39, 251
30.4, 246
30.41, 259
30.42, 247
30.43, 248
30.44, 235
30.45, 259
30.46, 210
30.47, 259
30.48, 263
30.49, 217
30.5, 284
30.51, 242
30.52, 254
30.53, 266
30.54, 264
30.55, 229
30.56, 294
30.57, 242
30.58, 262
30.59, 273
30.6, 244
30.61, 244
30.62, 246
30.63, 263
30.64, 254
30.65, 261
30.66, 274
30.67, 226
30.68, 242
30.69, 230
30.7, 251
30.71, 264
30.72, 234
30.73, 270
30.74, 277
30.75, 263
30.76, 254
30.77, 261
30.78, 264
30.79, 254
30.8, 252
30.81, 232
30.82, 264
30.83, 255
30.84, 261
30.85, 257
30.86, 253
30.87, 233
30.88, 255
30.89, 237
30.9, 250
30.91, 237
30.92, 231
30.93, 258
30.94, 240
30.95, 272
30.96, 243
30.97, 253
30.98, 213
30.99, 241
31, 226
31.01, 245
31.02, 220
31.03, 244
31.04, 246
31.05, 239
31.06, 232
31.07, 241
31.08, 249
31.09, 239
31.1, 237
31.11, 245
31.12, 243
31.13, 256
31.14, 273
31.15, 252
31.16, 238
31.17, 275
31.18, 246
31.19, 248
31.2, 240
31.21, 250
31.22, 260
31.23, 239
31.24, 254
31.25, 270
31.26, 272
31.27, 233
31.28, 229
31.29, 227
31.3, 252
31.31, 235
31.32, 253
31.33, 234
31.34, 230
31.35, 213
31.36, 248
31.37, 269
31.38, 229
31.39, 254
31.4, 237
31.41, 251
31.42, 223
31.43, 232
31.44, 257
31.45, 240
31.46, 273
31.47, 212
31.48, 250
31.49, 248
31.5, 236
31.51, 247
31.52, 247
31.53, 246
31.54, 247
31.55, 233
31.56, 247
31.57, 228
31.58, 242
31.59, 247
31.6, 245
31.61, 259
31.62, 261
31.63, 248
31.64, 245
31.65, 232
31.66, 269
31.67, 237
31.68, 267
31.69, 239
31.7, 235
31.71, 245
31.72, 265
31.73, 260
31.74, 234
31.75, 272
31.76, 254
31.77, 215
31.78, 252
31.79, 227
31.8, 229
31.81, 239
31.82, 262
31.83, 243
31.84, 258
31.85, 248
31.86, 242
31.87, 217
31.88, 264
31.89, 267
31.9, 276
31.91, 250
31.92, 259
31.93, 271
31.94, 277
31.95, 251
31.96, 244
31.97, 242
31.98, 249
31.99, 244
32, 237
32.01, 241
32.02, 249
32.03, 242
32.04, 258
32.05, 253
32.06, 259
32.07, 266
32.08, 216
32.09, 260
32.1, 233
32.11, 279
32.12, 254
32.13, 224
32.14, 238
32.15, 262
32.16, 209
32.17, 256
32.18, 277
32.19, 237
32.2, 264
32.21, 252
32.22, 228
32.23, 272
32.24, 236
32.25, 239
32.26, 248
32.27, 229
32.28, 249
32.29, 283
32.3, 247
32.31, 258
32.32, 262
32.33, 249
32.34, 247
32.35, 246
32.36, 244
32.37, 258
32.38, 275
32.39, 292
32.4, 256
32.41, 241
32.42, 242
32.43, 258
32.44, 260
32.45, 238
32.46, 241
32.47, 262
32.48, 240
32.49, 256
32.5, 252
32.51, 245
32.52, 276
32.53, 254
32.54, 238
32.55, 230
32.56, 246
32.57, 231
32.58, 278
32.59, 222
32.6, 259
32.61, 258
32.62, 251
32.63, 234
32.64, 249
32.65, 253
32.66, 271
32.67, 272
32.68, 275
32.69, 248
32.7, 247
32.71, 266
32.72, 237
32.73, 252
32.74, 285
32.75, 262
32.76, 244
32.77, 284
32.78, 267
32.79, 246
32.8, 249
32.81, 253
32.82, 229
32.83, 238
32.84, 270
32.85, 229
32.86, 253
32.87, 238
32.88, 239
32.89, 254
32.9, 248
32.91, 241
32.92, 239
32.93, 256
32.94, 269
32.95, 272
32.96, 230
32.97, 269
32.98, 272
32.99, 233
33, 243
33.01, 240
33.02, 266
33.03, 245
33.04, 231
33.05, 259
33.06, 254
33.07, 223
33.08, 240
33.09, 245
33.1, 258
33.11, 229
33.12, 227
33.13, 248
33.14, 263
33.15, 258
33.16, 256
33.17, 273
33.18, 247
33.19, 293
33.2, 258
33.21, 230
33.22, 228
33.23, 245
33.24, 233
33.25, 247
33.26, 266
33.27, 255
33.28, 272
33.29, 243
33.3, 251
33.31, 281
33.32, 253
33.33, 234
33.34, 240
33.35, 224
33.36, 254
33.37, 266
33.38, 273
33.39, 269
33.4, 259
33.41, 250
33.42, 277
33.43, 237
33.44, 254
33.45, 259
33.46, 248
33.47, 215
33.48, 245
33.49, 215
33.5, 240
33.51, 269
33.52, 244
33.53, 250
33.54, 263
33.55, 250
33.56, 220
33.57, 239
33.58, 241
33.59, 244
33.6, 228
33.61, 247
33.62, 267
33.63, 262
33.64, 237
33.65, 254
33.66, 252
33.67, 255
33.68, 265
33.69, 259
33.7, 258
33.71, 249
33.72, 209
33.73, 239
33.74, 249
33.75, 264
33.76, 249
33.77, 259
33.78, 236
33.79, 263
33.8, 288
33.81, 237
33.82, 245
33.83, 268
33.84, 263
33.85, 232
33.86, 235
33.87, 249
33.88, 266
33.89, 261
33.9, 263
33.91, 228
33.92, 235
33.93, 260
33.94, 270
33.95, 278
33.96, 275
33.97, 283
33.98, 247
33.99, 243
34, 259
34.01, 231
34.02, 255
34.03, 260
34.04, 247
34.05, 252
34.06, 234
34.07, 240
34.08, 256
34.09, 245
34.1, 237
34.11, 273
34.12, 243
34.13, 241
34.14, 260
34.15, 273
34.16, 258
34.17, 245
34.18, 252
34.19, 228
34.2, 246
34.21, 239
34.22, 249
34.23, 227
34.24, 245
34.25, 236
34.26, 262
34.27, 250
34.28, 238
34.29, 255
34.3, 237
34.31, 249
34.32, 256
34.33, 249
34.34, 260
34.35, 267
34.36, 241
34.37, 255
34.38, 269
34.39, 245
34.4, 254
34.41, 237
34.42, 244
34.43, 260
34.44, 266
34.45, 230
34.46, 239
34.47, 250
34.48, 249
34.49, 280
34.5, 222
34.51, 253
34.52, 251
34.53, 268
34.54, 243
34.55, 249
34.56, 257
34.57, 244
34.58, 285
34.59, 239
34.6, 267
34.61, 272
34.62, 275
34.63, 248
34.64, 254
34.65, 279
34.66, 264
34.67, 222
34.68, 269
34.69, 266
34.7, 242
34.71, 272
34.72, 236
34.73, 242
34.74, 274
34.75, 267
34.76, 234
34.77, 279
34.78, 260
34.79, 273
34.8, 239
34.81, 273
34.82, 270
34.83, 259
34.84, 274
34.85, 242
34.86, 286
34.87, 261
34.88, 227
34.89, 240
34.9, 275
34.91, 270
34.92, 233
34.93, 271
34.94, 253
34.95, 218
34.96, 254
34.97, 260
34.98, 279
34.99, 257
35, 258
35.01, 240
35.02, 274
35.03, 295
35.04, 273
35.05, 255
35.06, 280
35.07, 280
35.08, 265
35.09, 286
35.1, 261
35.11, 253
35.12, 304
35.13, 293
35.14, 257
35.15, 272
35.16, 253
35.17, 295
35.18, 280
35.19, 278
35.2, 270
35.21, 271
35.22, 298
35.23, 341
35.24, 276
35.25, 320
35.26, 303
35.27, 292
35.28, 302
35.29, 290
35.3, 366
35.31, 330
35.32, 342
35.33, 352
35.34, 379
35.35, 378
35.36, 460
35.37, 454
35.38, 411
35.39, 439
35.4, 533
35.41, 539
35.42, 554
35.43, 660
35.44, 632
35.45, 636
35.46, 602
35.47, 509
35.48, 498
35.49, 493
35.5, 528
35.51, 493
35.52, 472
35.53, 489
35.54, 474
35.55, 463
35.56, 417
35.57, 387
35.58, 407
35.59, 370
35.6, 348
35.61, 337
35.62, 364
35.63, 317
35.64, 325
35.65, 295
35.66, 310
35.67, 282
35.68, 304
35.69, 293
35.7, 282
35.71, 299
35.72, 274
35.73, 280
35.74, 279
35.75, 293
35.76, 312
35.77, 245
35.78, 281
35.79, 282
35.8, 252
35.81, 273
35.82, 279
35.83, 263
35.84, 264
35.85, 300
35.86, 256
35.87, 253
35.88, 242
35.89, 268
35.9, 263
35.91, 263
35.92, 252
35.93, 239
35.94, 274
35.95, 251
35.96, 278
35.97, 246
35.98, 284
35.99, 261
36, 267
36.01, 264
36.02, 237
36.03, 263
36.04, 251
36.05, 255
36.06, 236
36.07, 266
36.08, 258
36.09, 268
36.1, 278
36.11, 265
36.12, 242
36.13, 272
36.14, 243
36.15, 256
36.16, 247
36.17, 253
36.18, 240
36.19, 234
36.2, 293
36.21, 265
36.22, 266
36.23, 267
36.24, 282
36.25, 228
36.26, 291
36.27, 267
36.28, 250
36.29, 288
36.3, 245
36.31, 223
36.32, 246
36.33, 255
36.34, 258
36.35, 260
36.36, 259
36.37, 224
36.38, 255
36.39, 223
36.4, 276
36.41, 238
36.42, 243
36.43, 204
36.44, 243
36.45, 237
36.46, 275
36.47, 284
36.48, 251
36.49, 240
36.5, 264
36.51, 240
36.52, 226
36.53, 259
36.54, 288
36.55, 265
36.56, 272
36.57, 254
36.58, 259
36.59, 255
36.6, 260
36.61, 257
36.62, 246
36.63, 265
36.64, 282
36.65, 268
36.66, 269
36.67, 245
36.68, 242
36.69, 293
36.7, 238
36.71, 276
36.72, 265
36.73, 260
36.74, 255
36.75, 281
36.76, 283
36.77, 303
36.78, 256
36.79, 272
36.8, 272
36.81, 241
36.82, 249
36.83, 279
36.84, 248
36.85, 267
36.86, 232
36.87, 274
36.88, 250
36.89, 263
36.9, 282
36.91, 271
36.92, 218
36.93, 266
36.94, 264
36.95, 236
36.96, 272
36.97, 265
36.98, 266
36.99, 290
37, 266
37.01, 292
37.02, 252
37.03, 245
37.04, 296
37.05, 291
37.06, 249
37.07, 254
37.08, 290
37.09, 299
37.1, 268
37.11, 274
37.12, 283
37.13, 243
37.14, 256
37.15, 270
37.16, 231
37.17, 254
37.18, 270
37.19, 260
37.2, 269
37.21, 302
37.22, 253
37.23, 252
37.24, 264
37.25, 261
37.26, 235
37.27, 238
37.28, 282
37.29, 272
37.3, 266
37.31, 240
37.32, 250
37.33, 260
37.34, 257
37.35, 265
37.36, 257
37.37, 278
37.38, 252
37.39, 248
37.4, 243
37.41, 250
37.42, 268
37.43, 253
37.44, 241
37.45, 248
37.46, 241
37.47, 292
37.48, 250
37.49, 268
37.5, 251
37.51, 256
37.52, 268
37.53, 259
37.54, 242
37.55, 273
37.56, 241
37.57, 229
37.58, 239
37.59, 248
37.6, 259
37.61, 253
37.62, 268
37.63, 264
37.64, 235
37.65, 291
37.66, 234
37.67, 270
37.68, 266
37.69, 257
37.7, 251
37.71, 262
37.72, 252
37.73, 266
37.74, 276
37.75, 255
37.76, 223
37.77, 258
37.78, 255
37.79, 273
37.8, 250
37.81, 261
37.82, 268
37.83, 274
37.84, 268
37.85, 248
37.86, 263
37.87, 286
37.88, 258
37.89, 230
37.9, 268
37.91, 240
37.92, 267
37.93, 243
37.94, 241
37.95, 278
37.96, 232
37.97, 280
37.98, 254
37.99, 222
38, 258
38.01, 239
38.02, 264
38.03, 225
38.04, 240
38.05, 233
38.06, 216
38.07, 259
38.08, 265
38.09, 242
38.1, 242
38.11, 257
38.12, 256
38.13, 266
38.14, 273
38.15, 261
38.16, 255
38.17, 228
38.18, 244
38.19, 263
38.2, 207
38.21, 252
38.22, 264
38.23, 245
38.24, 252
38.25, 275
38.26, 237
38.27, 277
38.28, 249
38.29, 265
38.3, 256
38.31, 249
38.32, 251
38.33, 257
38.34, 269
38.35, 276
38.36, 251
38.37, 274
38.38, 247
38.39, 264
38.4, 271
38.41, 230
38.42, 234
38.43, 282
38.44, 271
38.45, 248
38.46, 259
38.47, 214
38.48, 272
38.49, 266
38.5, 280
38.51, 230
38.52, 253
38.53, 251
38.54, 262
38.55, 246
38.56, 241
38.57, 243
38.58, 239
38.59, 269
38.6, 261
38.61, 269
38.62, 244
38.63, 258
38.64, 270
38.65, 255
38.66, 306
38.67, 257
38.68, 262
38.69, 245
38.7, 230
38.71, 297
38.72, 273
38.73, 241
38.74, 269
38.75, 250
38.76, 254
38.77, 268
38.78, 274
38.79, 260
38.8, 278
38.81, 263
38.82, 255
38.83, 274
38.84, 256
38.85, 268
38.86, 257
38.87, 278
38.88, 218
38.89, 234
38.9, 255
38.91, 244
38.92, 252
38.93, 242
38.94, 256
38.95, 267
38.96, 254
38.97, 267
38.98, 271
38.99, 267
39, 258
39.01, 230
39.02, 274
39.03, 254
39.04, 262
39.05, 257
39.06, 260
39.07, 259
39.08, 260
39.09, 258
39.1, 249
39.11, 233
39.12, 261
39.13, 250
39.14, 269
39.15, 238
39.16, 272
39.17, 266
39.18, 236
39.19, 226
39.2, 243
39.21, 278
39.22, 266
39.23, 241
39.24, 262
39.25, 272
39.26, 247
39.27, 242
39.28, 254
39.29, 245
39.3, 257
39.31, 248
39.32, 278
39.33, 271
39.34, 256
39.35, 254
39.36, 292
39.37, 259
39.38, 230
39.39, 238
39.4, 278
39.41, 262
39.42, 273
39.43, 282
39.44, 282
39.45, 252
39.46, 261
39.47, 252
39.48, 264
39.49, 230
39.5, 248
39.51, 277
39.52, 264
39.53, 258
39.54, 257
39.55, 253
39.56, 264
39.57, 278
39.58, 269
39.59, 257
39.6, 277
39.61, 247
39.62, 275
39.63, 253
39.64, 237
39.65, 262
39.66, 226
39.67, 259
39.68, 260
39.69, 260
39.7, 300
39.71, 247
39.72, 227
39.73, 265
39.74, 262
39.75, 256
39.76, 265
39.77, 244
39.78, 255
39.79, 270
39.8, 279
39.81, 279
39.82, 234
39.83, 264
39.84, 230
39.85, 261
39.86, 245
39.87, 267
39.88, 239
39.89, 246
39.9, 245
39.91, 264
39.92, 217
39.93, 267
39.94, 291
39.95, 257
39.96, 245
39.97, 253
39.98, 258
39.99, 264
40, 260
40.01, 247
40.02, 254
40.03, 263
40.04, 269
40.05, 258
40.06, 249
40.07, 224
40.08, 243
40.09, 248
40.1, 255
40.11, 270
40.12, 275
40.13, 241
40.14, 250
40.15, 267
40.16, 298
40.17, 245
40.18, 245
40.19, 238
40.2, 248
40.21, 260
40.22, 265
40.23, 283
40.24, 238
40.25, 263
40.26, 228
40.27, 272
40.28, 246
40.29, 278
40.3, 269
40.31, 234
40.32, 274
40.33, 249
40.34, 240
40.35, 259
40.36, 251
40.37, 251
40.38, 241
40.39, 273
40.4, 244
40.41, 275
40.42, 253
40.43, 252
40.44, 270
40.45, 254
40.46, 283
40.47, 232
40.48, 253
40.49, 248
40.5, 276
40.51, 259
40.52, 228
40.53, 226
40.54, 275
40.55, 245
40.56, 245
40.57, 260
40.58, 255
40.59, 237
40.6, 256
40.61, 238
40.62, 251
40.63, 283
40.64, 253
40.65, 242
40.66, 237
40.67, 273
40.68, 244
40.69, 264
40.7, 223
40.71, 276
40.72, 264
40.73, 264
40.74, 251
40.75, 268
40.76, 266
40.77, 247
40.78, 232
40.79, 242
40.8, 252
40.81, 260
40.82, 242
40.83, 263
40.84, 262
40.85, 225
40.86, 278
40.87, 246
40.88, 289
40.89, 257
40.9, 250
40.91, 248
40.92, 237
40.93, 250
40.94, 248
40.95, 268
40.96, 299
40.97, 257
40.98, 250
40.99, 248
41, 280
41.01, 257
41.02, 274
41.03, 221
41.04, 271
41.05, 255
41.06, 274
41.07, 250
41.08, 270
41.09, 254
41.1, 253
41.11, 271
41.12, 259
41.13, 268
41.14, 253
41.15, 241
41.16, 262
41.17, 286
41.18, 270
41.19, 240
41.2, 264
41.21, 249
41.22, 224
41.23, 256
41.24, 244
41.25, 279
41.26, 253
41.27, 224
41.28, 272
41.29, 271
41.3, 248
41.31, 254
41.32, 252
41.33, 263
41.34, 266
41.35, 265
41.36, 260
41.37, 256
41.38, 274
41.39, 272
41.4, 243
41.41, 263
41.42, 257
41.43, 232
41.44, 281
41.45, 249
41.46, 276
41.47, 239
41.48, 275
41.49, 253
41.5, 264
41.51, 236
41.52, 255
41.53, 268
41.54, 245
41.55, 267
41.56, 267
41.57, 270
41.58, 275
41.59, 218
41.6, 253
41.61, 226
41.62, 257
41.63, 254
41.64, 249
41.65, 271
41.66, 220
41.67, 251
41.68, 280
41.69, 270
41.7, 271
41.71, 241
41.72, 258
41.73, 252
41.74, 281
41.75, 275
41.76, 234
41.77, 265
41.78, 291
41.79, 254
41.8, 251
41.81, 258
41.82, 253
41.83, 302
41.84, 260
41.85, 224
41.86, 252
41.87, 270
41.88, 258
41.89, 284
41.9, 262
41.91, 237
41.92, 258
41.93, 267
41.94, 277
41.95, 280
41.96, 291
41.97, 244
41.98, 260
41.99, 247
42, 252
42.01, 247
42.02, 244
42.03, 250
42.04, 262
42.05, 236
42.06, 269
42.07, 260
42.08, 269
42.09, 262
42.1, 278
42.11, 261
42.12, 243
42.13, 233
42.14, 296
42.15, 262
42.16, 272
42.17, 233
42.18, 263
42.19, 267
42.2, 267
42.21, 238
42.22, 260
42.23, 246
42.24, 279
42.25, 245
42.26, 261
42.27, 257
42.28, 239
42.29, 225
42.3, 264
42.31, 260
42.32, 247
42.33, 272
42.34, 227
42.35, 251
42.36, 258
42.37, 252
42.38, 291
42.39, 245
42.4, 274
42.41, 243
42.42, 274
42.43, 274
42.44, 262
42.45, 251
42.46, 283
42.47, 271
42.48, 218
42.49, 261
42.5, 256
42.51, 266
42.52, 270
42.53, 265
42.54, 238
42.55, 268
42.56, 262
42.57, 279
42.58, 278
42.59, 236
42.6, 277
42.61, 268
42.62, 246
42.63, 277
42.64, 259
42.65, 259
42.66, 284
42.67, 254
42.68, 246
42.69, 283
42.7, 272
42.71, 257
42.72, 263
42.73, 261
42.74, 244
42.75, 257
42.76, 258
42.77, 270
42.78, 260
42.79, 284
42.8, 261
42.81, 272
42.82, 217
42.83, 258
42.84, 253
42.85, 276
42.86, 288
42.87, 253
42.88, 254
42.89, 280
42.9, 277
42.91, 277
42.92, 302
42.93, 290
42.94, 280
42.95, 292
42.96, 269
42.97, 284
42.98, 329
42.99, 297
43, 303
43.01, 307
43.02, 320
43.03, 312
43.04, 362
43.05, 341
43.06, 329
43.07, 348
43.08, 373
43.09, 347
43.1, 321
43.11, 342
43.12, 323
43.13, 372
43.14, 312
43.15, 300
43.16, 330
43.17, 317
43.18, 299
43.19, 299
43.2, 301
43.21, 337
43.22, 294
43.23, 285
43.24, 269
43.25, 290
43.26, 291
43.27, 267
43.28, 281
43.29, 279
43.3, 271
43.31, 297
43.32, 269
43.33, 270
43.34, 240
43.35, 274
43.36, 257
43.37, 299
43.38, 278
43.39, 255
43.4, 269
43.41, 258
43.42, 255
43.43, 259
43.44, 252
43.45, 256
43.46, 275
43.47, 261
43.48, 270
43.49, 275
43.5, 251
43.51, 231
43.52, 258
43.53, 277
43.54, 253
43.55, 258
43.56, 245
43.57, 238
43.58, 248
43.59, 267
43.6, 271
43.61, 281
43.62, 253
43.63, 226
43.64, 243
43.65, 276
43.66, 271
43.67, 274
43.68, 248
43.69, 257
43.7, 253
43.71, 265
43.72, 267
43.73, 240
43.74, 270
43.75, 237
43.76, 245
43.77, 272
43.78, 254
43.79, 249
43.8, 248
43.81, 266
43.82, 251
43.83, 250
43.84, 264
43.85, 258
43.86, 247
43.87, 289
43.88, 290
43.89, 244
43.9, 250
43.91, 294
43.92, 272
43.93, 235
43.94, 237
43.95, 260
43.96, 230
43.97, 260
43.98, 261
43.99, 268
44, 269
44.01, 267
44.02, 257
44.03, 231
44.04, 274
44.05, 237
44.06, 256
44.07, 261
44.08, 250
44.09, 279
44.1, 234
44.11, 236
44.12, 256
44.13, 247
44.14, 265
44.15, 281
44.16, 257
44.17, 289
44.18, 258
44.19, 239
44.2, 278
44.21, 266
44.22, 267
44.23, 290
44.24, 261
44.25, 252
44.26, 269
44.27, 249
44.28, 268
44.29, 249
44.3, 275
44.31, 251
44.32, 241
44.33, 265
44.34, 277
44.35, 285
44.36, 286
44.37, 256
44.38, 264
44.39, 262
44.4, 219
44.41, 277
44.42, 264
44.43, 243
44.44, 281
44.45, 255
44.46, 247
44.47, 251
44.48, 284
44.49, 252
44.5, 279
44.51, 289
44.52, 247
44.53, 233
44.54, 277
44.55, 267
44.56, 261
44.57, 274
44.58, 276
44.59, 266
44.6, 239
44.61, 262
44.62, 282
44.63, 259
44.64, 241
44.65, 248
44.66, 277
44.67, 269
44.68, 246
44.69, 263
44.7, 233
44.71, 243
44.72, 234
44.73, 230
44.74, 253
44.75, 252
44.76, 227
44.77, 278
44.78, 267
44.79, 251
44.8, 281
44.81, 255
44.82, 278
44.83, 262
44.84, 230
44.85, 256
44.86, 233
44.87, 258
44.88, 250
44.89, 264
44.9, 251
44.91, 280
44.92, 253
44.93, 274
44.94, 264
44.95, 240
44.96, 236
44.97, 251
44.98, 268
44.99, 278
45, 245
45.01, 249
45.02, 294
45.03, 255
45.04, 262
45.05, 261
45.06, 260
45.07, 255
45.08, 268
45.09, 259
45.1, 247
45.11, 256
45.12, 236
45.13, 257
45.14, 271
45.15, 275
45.16, 289
45.17, 251
45.18, 265
45.19, 245
45.2, 263
45.21, 252
45.22, 277
45.23, 270
45.24, 250
45.25, 280
45.26, 274
45.27, 212
45.28, 260
45.29, 236
45.3, 282
45.31, 245
45.32, 229
45.33, 260
45.34, 247
45.35, 245
45.36, 286
45.37, 263
45.38, 279
45.39, 292
45.4, 243
45.41, 248
45.42, 248
45.43, 265
45.44, 249
45.45, 250
45.46, 248
45.47, 225
45.48, 253
45.49, 270
45.5, 259
45.51, 284
45.52, 249
45.53, 262
45.54, 252
45.55, 262
45.56, 284
45.57, 279
45.58, 248
45.59, 285
45.6, 273
45.61, 255
45.62, 291
45.63, 259
45.64, 238
45.65, 291
45.66, 246
45.67, 259
45.68, 245
45.69, 272
45.7, 257
45.71, 254
45.72, 268
45.73, 252
45.74, 267
45.75, 255
45.76, 235
45.77, 249
45.78, 237
45.79, 267
45.8, 230
45.81, 275
45.82, 249
45.83, 252
45.84, 259
45.85, 241
45.86, 245
45.87, 246
45.88, 257
45.89, 244
45.9, 270
45.91, 258
45.92, 252
45.93, 260
45.94, 276
45.95, 253
45.96, 285
45.97, 230
45.98, 268
45.99, 252
46, 290
46.01, 275
46.02, 280
46.03, 266
46.04, 234
46.05, 269
46.06, 277
46.07, 290
46.08, 252
46.09, 251
46.1, 264
46.11, 234
46.12, 303
46.13, 244
46.14, 295
46.15, 243
46.16, 248
46.17, 239
46.18, 285
46.19, 242
46.2, 249
46.21, 245
46.22, 261
46.23, 279
46.24, 252
46.25, 257
46.26, 250
46.27, 277
46.28, 243
46.29, 258
46.3, 246
46.31, 278
46.32, 263
46.33, 272
46.34, 250
46.35, 233
46.36, 268
46.37, 275
46.38, 268
46.39, 258
46.4, 210
46.41, 248
46.42, 251
46.43, 272
46.44, 253
46.45, 264
46.46, 272
46.47, 230
46.48, 291
46.49, 272
46.5, 253
46.51, 264
46.52, 272
46.53, 261
46.54, 250
46.55, 289
46.56, 252
46.57, 274
46.58, 265
46.59, 269
46.6, 279
46.61, 241
46.62, 245
46.63, 267
46.64, 272
46.65, 260
46.66, 266
46.67, 272
46.68, 261
46.69, 253
46.7, 262
46.71, 254
46.72, 249
46.73, 244
46.74, 256
46.75, 248
46.76, 241
46.77, 251
46.78, 270
46.79, 262
46.8, 231
46.81, 252
46.82, 256
46.83, 293
46.84, 242
46.85, 260
46.86, 258
46.87, 258
46.88, 275
46.89, 238
46.9, 256
46.91, 254
46.92, 261
46.93, 237
46.94, 266
46.95, 270
46.96, 251
46.97, 242
46.98, 282
46.99, 256
47, 250
47.01, 252
47.02, 253
47.03, 268
47.04, 256
47.05, 265
47.06, 247
47.07, 295
47.08, 216
47.09, 290
47.1, 256
47.11, 271
47.12, 248
47.13, 247
47.14, 258
47.15, 290
47.16, 229
47.17, 288
47.18, 246
47.19, 251
47.2, 253
47.21, 255
47.22, 254
47.23, 259
47.24, 296
47.25, 259
47.26, 268
47.27, 282
47.28, 270
47.29, 236
47.3, 257
47.31, 257
47.32, 261
47.33, 265
47.34, 241
47.35, 250
47.36, 266
47.37, 236
47.38, 277
47.39, 268
47.4, 240
47.41, 252
47.42, 271
47.43, 267
47.44, 274
47.45, 269
47.46, 262
47.47, 257
47.48, 280
47.49, 261
47.5, 247
47.51, 283
47.52, 261
47.53, 305
47.54, 273
47.55, 306
47.56, 241
47.57, 272
47.58, 269
47.59, 277
47.6, 270
47.61, 247
47.62, 238
47.63, 247
47.64, 235
47.65, 264
47.66, 262
47.67, 283
47.68, 259
47.69, 236
47.7, 245
47.71, 268
47.72, 290
47.73, 265
47.74, 266
47.75, 265
47.76, 265
47.77, 252
47.78, 238
47.79, 270
47.8, 265
47.81, 259
47.82, 252
47.83, 255
47.84, 244
47.85, 249
47.86, 258
47.87, 275
47.88, 263
47.89, 243
47.9, 254
47.91, 265
47.92, 260
47.93, 239
47.94, 255
47.95, 251
47.96, 287
47.97, 269
47.98, 243
47.99, 258
48, 268
48.01, 253
48.02, 243
48.03, 279
48.04, 273
48.05, 258
48.06, 252
48.07, 250
48.08, 270
48.09, 258
48.1, 260
48.11, 275
48.12, 262
48.13, 282
48.14, 259
48.15, 247
48.16, 286
48.17, 263
48.18, 284
48.19, 261
48.2, 265
48.21, 277
48.22, 271
48.23, 242
48.24, 241
48.25, 213
48.26, 276
48.27, 250
48.28, 269
48.29, 251
48.3, 262
48.31, 256
48.32, 245
48.33, 266
48.34, 249
48.35, 238
48.36, 262
48.37, 252
48.38, 262
48.39, 278
48.4, 274
48.41, 230
48.42, 249
48.43, 247
48.44, 242
48.45, 297
48.46, 263
48.47, 263
48.48, 266
48.49, 251
48.5, 243
48.51, 278
48.52, 252
48.53, 259
48.54, 258
48.55, 265
48.56, 267
48.57, 256
48.58, 253
48.59, 234
48.6, 251
48.61, 276
48.62, 250
48.63, 258
48.64, 264
48.65, 263
48.66, 245
48.67, 289
48.68, 240
48.69, 238
48.7, 260
48.71, 273
48.72, 247
48.73, 211
48.74, 264
48.75, 264
48.76, 260
48.77, 264
48.78, 264
48.79, 252
48.8, 251
48.81, 239
48.82, 258
48.83, 247
48.84, 283
48.85, 285
48.86, 250
48.87, 249
48.88, 252
48.89, 284
48.9, 260
48.91, 266
48.92, 256
48.93, 233
48.94, 270
48.95, 286
48.96, 245
48.97, 246
48.98, 307
48.99, 251
49, 257
49.01, 248
49.02, 259
49.03, 273
49.04, 282
49.05, 261
49.06, 265
49.07, 288
49.08, 270
49.09, 264
49.1, 234
49.11, 260
49.12, 257
49.13, 244
49.14, 273
49.15, 269
49.16, 244
49.17, 270
49.18, 247
49.19, 283
49.2, 258
49.21, 270
49.22, 271
49.23, 265
49.24, 225
49.25, 255
49.26, 258
49.27, 256
49.28, 251
49.29, 264
49.3, 257
49.31, 254
49.32, 259
49.33, 278
49.34, 264
49.35, 272
49.36, 273
49.37, 264
49.38, 243
49.39, 251
49.4, 256
49.41, 266
49.42, 260
49.43, 256
49.44, 263
49.45, 245
49.46, 268
49.47, 250
49.48, 242
49.49, 240
49.5, 258
49.51, 232
49.52, 261
49.53, 260
49.54, 251
49.55, 266
49.56, 244
49.57, 267
49.58, 267
49.59, 232
49.6, 258
49.61, 288
49.62, 273
49.63, 246
49.64, 253
49.65, 271
49.66, 258
49.67, 249
49.68, 270
49.69, 242
49.7, 269
49.71, 269
49.72, 243
49.73, 285
49.74, 265
49.75, 270
49.76, 295
49.77, 307
49.78, 285
49.79, 242
49.8, 242
49.81, 268
49.82, 286
49.83, 251
49.84, 249
49.85, 264
49.86, 273
49.87, 239
49.88, 192
49.89, 281
49.9, 255
49.91, 263
49.92, 273
49.93, 267
49.94, 271
49.95, 256
49.96, 255
49.97, 255
49.98, 248
49.99, 267
50, 244
50.01, 280
50.02, 264
50.03, 259
50.04, 239
50.05, 228
50.06, 265
50.07, 280
50.08, 266
50.09, 277
50.1, 226
50.11, 240
50.12, 241
50.13, 252
50.14, 264
50.15, 251
50.16, 253
50.17, 272
50.18, 288
50.19, 270
50.2, 258
50.21, 276
50.22, 269
50.23, 225
50.24, 261
50.25, 249
50.26, 256
50.27, 269
50.28, 279
50.29, 261
50.3, 273
50.31, 256
50.32, 262
50.33, 247
50.34, 301
50.35, 229
50.36, 230
50.37, 253
50.38, 271
50.39, 248
50.4, 278
50.41, 243
50.42, 244
50.43, 253
50.44, 273
50.45, 274
50.46, 258
50.47, 258
50.48, 262
50.49, 237
50.5, 244
50.51, 264
50.52, 251
50.53, 235
50.54, 237
50.55, 289
50.56, 250
50.57, 246
50.58, 268
50.59, 267
50.6, 251
50.61, 238
50.62, 271
50.63, 281
50.64, 254
50.65, 252
50.66, 263
50.67, 233
50.68, 276
50.69, 273
50.7, 265
50.71, 259
50.72, 261
50.73, 276
50.74, 275
50.75, 250
50.76, 300
50.77, 240
50.78, 288
50.79, 277
50.8, 256
50.81, 262
50.82, 268
50.83, 267
50.84, 262
50.85, 254
50.86, 286
50.87, 260
50.88, 254
50.89, 240
50.9, 286
50.91, 287
50.92, 289
50.93, 278
50.94, 251
50.95, 257
50.96, 262
50.97, 280
50.98, 245
50.99, 253
51, 268
51.01, 253
51.02, 265
51.03, 256
51.04, 293
51.05, 278
51.06, 251
51.07, 270
51.08, 274
51.09, 270
51.1, 269
51.11, 270
51.12, 298
51.13, 265
51.14, 243
51.15, 291
51.16, 246
51.17, 234
51.18, 261
51.19, 237
51.2, 259
51.21, 264
51.22, 258
51.23, 268
51.24, 250
51.25, 257
51.26, 261
51.27, 270
51.28, 257
51.29, 241
51.3, 260
51.31, 255
51.32, 230
51.33, 277
51.34, 281
51.35, 249
51.36, 273
51.37, 261
51.38, 271
51.39, 250
51.4, 257
51.41, 239
51.42, 272
51.43, 270
51.44, 253
51.45, 207
51.46, 292
51.47, 250
51.48, 276
51.49, 272
51.5, 259
51.51, 279
51.52, 241
51.53, 237
51.54, 267
51.55, 264
51.56, 232
51.57, 257
51.58, 238
51.59, 270
51.6, 260
51.61, 282
51.62, 240
51.63, 262
51.64, 247
51.65, 253
51.66, 264
51.67, 268
51.68, 235
51.69, 251
51.7, 270
51.71, 253
51.72, 279
51.73, 249
51.74, 272
51.75, 286
51.76, 287
51.77, 260
51.78, 236
51.79, 254
51.8, 252
51.81, 264
51.82, 251
51.83, 259
51.84, 238
51.85, 269
51.86, 277
51.87, 279
51.88, 264
51.89, 287
51.9, 252
51.91, 247
51.92, 235
51.93, 242
51.94, 250
51.95, 271
51.96, 261
51.97, 282
51.98, 275
51.99, 267
52, 275
52.01, 255
52.02, 274
52.03, 281
52.04, 280
52.05, 279
52.06, 246
52.07, 266
52.08, 250
52.09, 249
52.1, 257
52.11, 264
52.12, 245
52.13, 232
52.14, 265
52.15, 273
52.16, 230
52.17, 231
52.18, 263
52.19, 253
52.2, 247
52.21, 266
52.22, 254
52.23, 250
52.24, 275
52.25, 269
52.26, 260
52.27, 280
52.28, 265
52.29, 270
52.3, 255
52.31, 267
52.32, 257
52.33, 268
52.34, 276
52.35, 271
52.36, 280
52.37, 250
52.38, 272
52.39, 247
52.4, 260
52.41, 270
52.42, 268
52.43, 249
52.44, 261
52.45, 241
52.46, 254
52.47, 256
52.48, 310
52.49, 268
52.5, 255
52.51, 232
52.52, 268
52.53, 274
52.54, 242
52.55, 247
52.56, 256
52.57, 267
52.58, 271
52.59, 269
52.6, 260
52.61, 263
52.62, 262
52.63, 269
52.64, 280
52.65, 278
52.66, 246
52.67, 268
52.68, 255
52.69, 269
52.7, 251
52.71, 271
52.72, 223
52.73, 274
52.74, 245
52.75, 268
52.76, 262
52.77, 238
52.78, 298
52.79, 260
52.8, 245
52.81, 258
52.82, 278
52.83, 264
52.84, 305
52.85, 281
52.86, 247
52.87, 248
52.88, 218
52.89, 277
52.9, 264
52.91, 262
52.92, 274
52.93, 246
52.94, 273
52.95, 255
52.96, 276
52.97, 262
52.98, 277
52.99, 266
53, 261
53.01, 266
53.02, 250
53.03, 263
53.04, 253
53.05, 259
53.06, 264
53.07, 249
53.08, 262
53.09, 264
53.1, 263
53.11, 255
53.12, 247
53.13, 231
53.14, 265
53.15, 268
53.16, 269
53.17, 274
53.18, 262
53.19, 252
53.2, 280
53.21, 276
53.22, 239
53.23, 265
53.24, 277
53.25, 261
53.26, 237
53.27, 255
53.28, 280
53.29, 224
53.3, 297
53.31, 304
53.32, 267
53.33, 263
53.34, 256
53.35, 293
53.36, 254
53.37, 268
53.38, 286
53.39, 298
53.4, 329
53.41, 290
53.42, 258
53.43, 281
53.44, 287
53.45, 279
53.46, 289
53.47, 258
53.48, 260
53.49, 277
53.5, 251
53.51, 266
53.52, 266
53.53, 252
53.54, 325
53.55, 270
53.56, 308
53.57, 272
53.58, 300
53.59, 277
53.6, 299
53.61, 284
53.62, 294
53.63, 283
53.64, 281
53.65, 265
53.66, 276
53.67, 239
53.68, 268
53.69, 274
53.7, 247
53.71, 264
53.72, 240
53.73, 265
53.74, 243
53.75, 277
53.76, 262
53.77, 246
53.78, 283
53.79, 238
53.8, 264
53.81, 271
53.82, 269
53.83, 251
53.84, 237
53.85, 253
53.86, 257
53.87, 272
53.88, 276
53.89, 255
53.9, 282
53.91, 282
53.92, 282
53.93, 267
53.94, 282
53.95, 284
53.96, 285
53.97, 271
53.98, 236
53.99, 264
54, 286
54.01, 245
54.02, 258
54.03, 280
54.04, 283
54.05, 239
54.06, 279
54.07, 264
54.08, 255
54.09, 284
54.1, 253
54.11, 244
54.12, 268
54.13, 258
54.14, 258
54.15, 261
54.16, 266
54.17, 264
54.18, 286
54.19, 308
54.2, 300
54.21, 239
54.22, 260
54.23, 272
54.24, 264
54.25, 274
54.26, 262
54.27, 264
54.28, 249
54.29, 259
54.3, 255
54.31, 273
54.32, 236
54.33, 277
54.34, 261
54.35, 284
54.36, 235
54.37, 275
54.38, 289
54.39, 300
54.4, 270
54.41, 241
54.42, 266
54.43, 249
54.44, 255
54.45, 239
54.46, 245
54.47, 267
54.48, 289
54.49, 285
54.5, 261
54.51, 277
54.52, 274
54.53, 267
54.54, 250
54.55, 277
54.56, 251
54.57, 271
54.58, 259
54.59, 260
54.6, 255
54.61, 275
54.62, 240
54.63, 249
54.64, 245
54.65, 256
54.66, 278
54.67, 276
54.68, 286
54.69, 277
54.7, 267
54.71, 252
54.72, 283
54.73, 292
54.74, 278
54.75, 260
54.76, 280
54.77, 269
54.78, 250
54.79, 259
54.8, 260
54.81, 275
54.82, 247
54.83, 259
54.84, 242
54.85, 236
54.86, 246
54.87, 232
54.88, 236
54.89, 258
54.9, 235
54.91, 274
54.92, 282
54.93, 291
54.94, 274
54.95, 257
54.96, 274
54.97, 280
54.98, 220
54.99, 271
55, 280
55.01, 252
55.02, 240
55.03, 212
55.04, 271
55.05, 252
55.06, 263
55.07, 245
55.08, 273
55.09, 272
55.1, 286
55.11, 250
55.12, 263
55.13, 260
55.14, 258
55.15, 249
55.16, 255
55.17, 246
55.18, 273
55.19, 279
55.2, 231
55.21, 260
55.22, 228
55.23, 275
55.24, 277
55.25, 265
55.26, 289
55.27, 274
55.28, 257
55.29, 253
55.3, 223
55.31, 274
55.32, 252
55.33, 262
55.34, 262
55.35, 259
55.36, 288
55.37, 275
55.38, 279
55.39, 293
55.4, 270
55.41, 263
55.42, 271
55.43, 264
55.44, 254
55.45, 259
55.46, 263
55.47, 267
55.48, 270
55.49, 262
55.5, 264
55.51, 236
55.52, 222
55.53, 264
55.54, 256
55.55, 261
55.56, 282
55.57, 233
55.58, 262
55.59, 259
55.6, 246
55.61, 293
55.62, 256
55.63, 272
55.64, 234
55.65, 260
55.66, 250
55.67, 236
55.68, 241
55.69, 271
55.7, 254
55.71, 247
55.72, 262
55.73, 250
55.74, 246
55.75, 250
55.76, 293
55.77, 296
55.78, 272
55.79, 262
55.8, 242
55.81, 236
55.82, 283
55.83, 255
55.84, 285
55.85, 271
55.86, 251
55.87, 261
55.88, 271
55.89, 246
55.9, 302
55.91, 249
55.92, 281
55.93, 253
55.94, 258
55.95, 251
55.96, 274
55.97, 250
55.98, 259
55.99, 285
56, 263
56.01, 275
56.02, 280
56.03, 274
56.04, 268
56.05, 260
56.06, 270
56.07, 260
56.08, 260
56.09, 257
56.1, 256
56.11, 241
56.12, 281
56.13, 263
56.14, 273
56.15, 255
56.16, 246
56.17, 269
56.18, 260
56.19, 268
56.2, 288
56.21, 255
56.22, 245
56.23, 265
56.24, 258
56.25, 246
56.26, 239
56.27, 251
56.28, 255
56.29, 286
56.3, 254
56.31, 279
56.32, 265
56.33, 265
56.34, 273
56.35, 281
56.36, 263
56.37, 265
56.38, 249
56.39, 298
56.4, 268
56.41, 272
56.42, 278
56.43, 288
56.44, 250
56.45, 236
56.46, 285
56.47, 290
56.48, 279
56.49, 244
56.5, 261
56.51, 321
56.52, 283
56.53, 275
56.54, 242
56.55, 280
56.56, 275
56.57, 275
56.58, 304
56.59, 248
56.6, 277
56.61, 296
56.62, 274
56.63, 279
56.64, 265
56.65, 287
56.66, 282
56.67, 263
56.68, 256
56.69, 294
56.7, 290
56.71, 265
56.72, 301
56.73, 297
56.74, 297
56.75, 243
56.76, 309
56.77, 274
56.78, 268
56.79, 278
56.8, 274
56.81, 292
56.82, 288
56.83, 310
56.84, 290
56.85, 306
56.86, 293
56.87, 352
56.88, 318
56.89, 300
56.9, 348
56.91, 365
56.92, 328
56.93, 383
56.94, 321
56.95, 352
56.96, 349
56.97, 343
56.98, 307
56.99, 353
57, 340
57.01, 325
57.02, 315
57.03, 332
57.04, 316
57.05, 347
57.06, 329
57.07, 323
57.08, 308
57.09, 295
57.1, 378
57.11, 341
57.12, 327
57.13, 327
57.14, 296
57.15, 292
57.16, 310
57.17, 335
57.18, 297
57.19, 304
57.2, 282
57.21, 311
57.22, 289
57.23, 263
57.24, 274
57.25, 298
57.26, 258
57.27, 281
57.28, 288
57.29, 264
57.3, 231
57.31, 275
57.32, 279
57.33, 262
57.34, 289
57.35, 275
57.36, 295
57.37, 271
57.38, 291
57.39, 258
57.4, 278
57.41, 277
57.42, 279
57.43, 277
57.44, 268
57.45, 282
57.46, 286
57.47, 261
57.48, 274
57.49, 254
57.5, 264
57.51, 281
57.52, 291
57.53, 266
57.54, 280
57.55, 275
57.56, 263
57.57, 283
57.58, 268
57.59, 276
57.6, 300
57.61, 267
57.62, 224
57.63, 294
57.64, 284
57.65, 261
57.66, 258
57.67, 285
57.68, 276
57.69, 293
57.7, 252
57.71, 249
57.72, 237
57.73, 256
57.74, 263
57.75, 252
57.76, 260
57.77, 252
57.78, 245
57.79, 281
57.8, 274
57.81, 302
57.82, 262
57.83, 279
57.84, 289
57.85, 263
57.86, 243
57.87, 281
57.88, 284
57.89, 265
57.9, 269
57.91, 275
57.92, 260
57.93, 256
57.94, 264
57.95, 289
57.96, 276
57.97, 238
57.98, 262
57.99, 264
58, 264
58.01, 238
58.02, 239
58.03, 235
58.04, 315
58.05, 259
58.06, 290
58.07, 244
58.08, 266
58.09, 272
58.1, 252
58.11, 238
58.12, 230
58.13, 259
58.14, 265
58.15, 285
58.16, 243
58.17, 266
58.18, 261
58.19, 270
58.2, 269
58.21, 244
58.22, 260
58.23, 262
58.24, 252
58.25, 245
58.26, 250
58.27, 273
58.28, 261
58.29, 241
58.3, 294
58.31, 264
58.32, 261
58.33, 270
58.34, 248
58.35, 276
58.36, 245
58.37, 248
58.38, 267
58.39, 265
58.4, 249
58.41, 270
58.42, 235
58.43, 268
58.44, 252
58.45, 260
58.46, 254
58.47, 268
58.48, 264
58.49, 288
58.5, 264
58.51, 275
58.52, 268
58.53, 263
58.54, 231
58.55, 258
58.56, 289
58.57, 285
58.58, 253
58.59, 242
58.6, 274
58.61, 295
58.62, 288
58.63, 284
58.64, 266
58.65, 278
58.66, 270
58.67, 262
58.68, 231
58.69, 253
58.7, 279
58.71, 280
58.72, 276
58.73, 241
58.74, 275
58.75, 253
58.76, 277
58.77, 287
58.78, 279
58.79, 258
58.8, 270
58.81, 238
58.82, 253
58.83, 260
58.84, 275
58.85, 271
58.86, 242
58.87, 261
58.88, 216
58.89, 288
58.9, 265
58.91, 264
58.92, 259
58.93, 251
58.94, 248
58.95, 255
58.96, 276
58.97, 246
58.98, 269
58.99, 300
59, 251
59.01, 262
59.02, 272
59.03, 236
59.04, 262
59.05, 257
59.06, 256
59.07, 252
59.08, 265
59.09, 299
59.1, 226
59.11, 279
59.12, 265
59.13, 275
59.14, 264
59.15, 276
59.16, 277
59.17, 271
59.18, 266
59.19, 242
59.2, 274
59.21, 275
59.22, 252
59.23, 257
59.24, 265
59.25, 278
59.26, 227
59.27, 239
59.28, 256
59.29, 276
59.3, 236
59.31, 261
59.32, 275
59.33, 251
59.34, 260
59.35, 254
59.36, 289
59.37, 254
59.38, 252
59.39, 268
59.4, 289
59.41, 290
59.42, 266
59.43, 275
59.44, 265
59.45, 290
59.46, 259
59.47, 262
59.48, 260
59.49, 263
59.5, 275
59.51, 264
59.52, 265
59.53, 239
59.54, 241
59.55, 262
59.56, 281
59.57, 273
59.58, 258
59.59, 249
59.6, 265
59.61, 261
59.62, 275
59.63, 260
59.64, 275
59.65, 269
59.66, 281
59.67, 265
59.68, 295
59.69, 265
59.7, 238
59.71, 278
59.72, 261
59.73, 245
59.74, 266
59.75, 282
59.76, 259
59.77, 278
59.78, 279
59.79, 260
59.8, 270
59.81, 279
59.82, 232
59.83, 235
59.84, 273
59.85, 251
59.86, 256
59.87, 255
59.88, 281
59.89, 265
59.9, 271
59.91, 264
59.92, 251
59.93, 269
59.94, 269
59.95, 276
59.96, 255
59.97, 269
59.98, 252
59.99, 257
60, 260
60.01, 270
60.02, 256
60.03, 246
60.04, 243
60.05, 241
60.06, 249
60.07, 252
60.08, 251
60.09, 259
60.1, 258
60.11, 273
60.12, 250
60.13, 266
60.14, 267
60.15, 261
60.16, 267
60.17, 264
60.18, 248
60.19, 291
60.2, 253
60.21, 254
60.22, 257
60.23, 255
60.24, 262
60.25, 250
60.26, 279
60.27, 252
60.28, 264
60.29, 257
60.3, 251
60.31, 256
60.32, 280
60.33, 254
60.34, 264
60.35, 294
60.36, 254
60.37, 286
60.38, 282
60.39, 263
60.4, 270
60.41, 275
60.42, 255
60.43, 262
60.44, 278
60.45, 281
60.46, 276
60.47, 241
60.48, 270
60.49, 250
60.5, 272
60.51, 253
60.52, 250
60.53, 260
60.54, 248
60.55, 303
60.56, 248
60.57, 255
60.58, 275
60.59, 258
60.6, 274
60.61, 264
60.62, 251
60.63, 276
60.64, 272
60.65, 227
60.66, 275
60.67, 258
60.68, 291
60.69, 252
60.7, 271
60.71, 227
60.72, 275
60.73, 277
60.74, 241
60.75, 255
60.76, 257
60.77, 237
60.78, 253
60.79, 233
60.8, 291
60.81, 293
60.82, 288
60.83, 215
60.84, 297
60.85, 283
60.86, 246
60.87, 267
60.88, 256
60.89, 259
60.9, 240
60.91, 242
60.92, 256
60.93, 287
60.94, 254
60.95, 273
60.96, 253
60.97, 282
60.98, 256
60.99, 260
61, 256
61.01, 270
61.02, 272
61.03, 280
61.04, 263
61.05, 262
61.06, 237
61.07, 262
61.08, 256
61.09, 224
61.1, 256
61.11, 278
61.12, 285
61.13, 257
61.14, 270
61.15, 247
61.16, 263
61.17, 256
61.18, 277
61.19, 281
61.2, 265
61.21, 291
61.22, 272
61.23, 297
61.24, 279
61.25, 266
61.26, 293
61.27, 269
61.28, 272
61.29, 255
61.3, 253
61.31, 255
61.32, 249
61.33, 264
61.34, 251
61.35, 274
61.36, 263
61.37, 267
61.38, 271
61.39, 260
61.4, 245
61.41, 262
61.42, 249
61.43, 277
61.44, 257
61.45, 240
61.46, 263
61.47, 278
61.48, 262
61.49, 258
61.5, 282
61.51, 274
61.52, 263
61.53, 259
61.54, 260
61.55, 286
61.56, 250
61.57, 266
61.58, 241
61.59, 254
61.6, 248
61.61, 274
61.62, 297
61.63, 245
61.64, 267
61.65, 255
61.66, 291
61.67, 247
61.68, 299
61.69, 283
61.7, 277
61.71, 260
61.72, 290
61.73, 242
61.74, 270
61.75, 233
61.76, 274
61.77, 267
61.78, 272
61.79, 289
61.8, 260
61.81, 273
61.82, 273
61.83, 261
61.84, 271
61.85, 267
61.86, 269
61.87, 263
61.88, 261
61.89, 275
61.9, 261
61.91, 286
61.92, 280
61.93, 290
61.94, 271
61.95, 291
61.96, 276
61.97, 265
61.98, 294
61.99, 261
62, 297
62.01, 242
62.02, 250
62.03, 239
62.04, 247
62.05, 277
62.06, 257
62.07, 265
62.08, 276
62.09, 276
62.1, 244
62.11, 281
62.12, 248
62.13, 280
62.14, 273
62.15, 294
62.16, 274
62.17, 297
62.18, 280
62.19, 283
62.2, 292
62.21, 288
62.22, 271
62.23, 277
62.24, 289
62.25, 262
62.26, 300
62.27, 249
62.28, 270
62.29, 294
62.3, 287
62.31, 294
62.32, 268
62.33, 278
62.34, 278
62.35, 302
62.36, 316
62.37, 316
62.38, 288
62.39, 305
62.4, 277
62.41, 297
62.42, 315
62.43, 314
62.44, 322
62.45, 346
62.46, 327
62.47, 320
62.48, 346
62.49, 384
62.5, 348
62.51, 365
62.52, 362
62.53, 348
62.54, 365
62.55, 371
62.56, 342
62.57, 358
62.58, 327
62.59, 344
62.6, 332
62.61, 336
62.62, 350
62.63, 286
62.64, 326
62.65, 358
62.66, 343
62.67, 312
62.68, 304
62.69, 333
62.7, 342
62.71, 317
62.72, 332
62.73, 319
62.74, 315
62.75, 303
62.76, 311
62.77, 308
62.78, 281
62.79, 288
62.8, 275
62.81, 323
62.82, 297
62.83, 284
62.84, 279
62.85, 290
62.86, 285
62.87, 294
62.88, 257
62.89, 274
62.9, 300
62.91, 311
62.92, 280
62.93, 294
62.94, 300
62.95, 263
62.96, 251
62.97, 278
62.98, 275
62.99, 278
63, 276
63.01, 274
63.02, 276
63.03, 251
63.04, 269
63.05, 292
63.06, 274
63.07, 235
63.08, 273
63.09, 286
63.1, 245
63.11, 263
63.12, 291
63.13, 287
63.14, 258
63.15, 280
63.16, 271
63.17, 258
63.18, 272
63.19, 231
63.2, 242
63.21, 274
63.22, 268
63.23, 282
63.24, 252
63.25, 296
63.26, 302
63.27, 278
63.28, 272
63.29, 273
63.3, 245
63.31, 236
63.32, 300
63.33, 267
63.34, 269
63.35, 276
63.36, 253
63.37, 268
63.38, 267
63.39, 259
63.4, 269
63.41, 291
63.42, 253
63.43, 276
63.44, 258
63.45, 228
63.46, 245
63.47, 266
63.48, 271
63.49, 253
63.5, 247
63.51, 290
63.52, 285
63.53, 243
63.54, 253
63.55, 238
63.56, 242
63.57, 250
63.58, 267
63.59, 294
63.6, 241
63.61, 275
63.62, 281
63.63, 273
63.64, 276
63.65, 261
63.66, 259
63.67, 287
63.68, 275
63.69, 279
63.7, 284
63.71, 276
63.72, 266
63.73, 239
63.74, 266
63.75, 230
63.76, 279
63.77, 272
63.78, 279
63.79, 264
63.8, 287
63.81, 264
63.82, 258
63.83, 246
63.84, 259
63.85, 271
63.86, 267
63.87, 260
63.88, 278
63.89, 256
63.9, 280
63.91, 276
63.92, 284
63.93, 237
63.94, 269
63.95, 243
63.96, 239
63.97, 263
63.98, 263
63.99, 243
64, 273
64.01, 270
64.02, 257
64.03, 267
64.04, 252
64.05, 267
64.06, 250
64.07, 246
64.08, 276
64.09, 250
64.1, 252
64.11, 270
64.12, 242
64.13, 249
64.14, 259
64.15, 264
64.16, 261
64.17, 265
64.18, 244
64.19, 227
64.2, 225
64.21, 271
64.22, 257
64.23, 233
64.24, 276
64.25, 258
64.26, 237
64.27, 277
64.28, 270
64.29, 244
64.3, 260
64.31, 262
64.32, 249
64.33, 263
64.34, 236
64.35, 261
64.36, 279
64.37, 233
64.38, 258
64.39, 236
64.4, 276
64.41, 266
64.42, 250
64.43, 271
64.44, 272
64.45, 263
64.46, 261
64.47, 272
64.48, 234
64.49, 256
64.5, 271
64.51, 274
64.52, 231
64.53, 277
64.54, 240
64.55, 283
64.56, 264
64.57, 283
64.58, 253
64.59, 251
64.6, 271
64.61, 271
64.62, 277
64.63, 259
64.64, 252
64.65, 273
64.66, 293
64.67, 258
64.68, 285
64.69, 290
64.7, 248
64.71, 267
64.72, 253
64.73, 242
64.74, 252
64.75, 251
64.76, 267
64.77, 252
64.78, 262
64.79, 250
64.8, 283
64.81, 253
64.82, 284
64.83, 272
64.84, 257
64.85, 264
64.86, 254
64.87, 266
64.88, 276
64.89, 248
64.9, 255
64.91, 265
64.92, 262
64.93, 241
64.94, 262
64.95, 276
64.96, 266
64.97, 285
64.98, 276
64.99, 287
65, 246
65.01, 250
65.02, 271
65.03, 285
65.04, 252
65.05, 248
65.06, 263
65.07, 293
65.08, 260
65.09, 239
65.1, 275
65.11, 274
65.12, 231
65.13, 243
65.14, 257
65.15, 283
65.16, 268
65.17, 260
65.18, 265
65.19, 258
65.2, 257
65.21, 243
65.22, 265
65.23, 264
65.24, 286
65.25, 263
65.26, 258
65.27, 247
65.28, 261
65.29, 257
65.3, 249
65.31, 271
65.32, 263
65.33, 275
65.34, 275
65.35, 258
65.36, 246
65.37, 259
65.38, 264
65.39, 246
65.4, 260
65.41, 221
65.42, 294
65.43, 274
65.44, 234
65.45, 266
65.46, 245
65.47, 264
65.48, 259
65.49, 254
65.5, 296
65.51, 295
65.52, 291
65.53, 270
65.54, 269
65.55, 258
65.56, 297
65.57, 285
65.58, 241
65.59, 260
65.6, 268
65.61, 267
65.62, 291
65.63, 266
65.64, 258
65.65, 276
65.66, 250
65.67, 256
65.68, 277
65.69, 274
65.7, 279
65.71, 246
65.72, 257
65.73, 247
65.74, 277
65.75, 260
65.76, 271
65.77, 261
65.78, 273
65.79, 242
65.8, 267
65.81, 277
65.82, 251
65.83, 264
65.84, 229
65.85, 279
65.86, 274
65.87, 286
65.88, 259
65.89, 276
65.9, 260
65.91, 275
65.92, 276
65.93, 246
65.94, 270
65.95, 277
65.96, 267
65.97, 240
65.98, 274
65.99, 278
66, 259
66.01, 281
66.02, 264
66.03, 222
66.04, 243
66.05, 285
66.06, 257
66.07, 258
66.08, 264
66.09, 265
66.1, 257
66.11, 274
66.12, 242
66.13, 269
66.14, 268
66.15, 271
66.16, 277
66.17, 279
66.18, 259
66.19, 270
66.2, 248
66.21, 284
66.22, 286
66.23, 258
66.24, 248
66.25, 268
66.26, 278
66.27, 247
66.28, 283
66.29, 259
66.3, 289
66.31, 267
66.32, 234
66.33, 265
66.34, 277
66.35, 268
66.36, 269
66.37, 272
66.38, 265
66.39, 250
66.4, 248
66.41, 242
66.42, 245
66.43, 240
66.44, 282
66.45, 240
66.46, 266
66.47, 280
66.48, 290
66.49, 265
66.5, 251
66.51, 262
66.52, 267
66.53, 258
66.54, 270
66.55, 259
66.56, 304
66.57, 263
66.58, 263
66.59, 285
66.6, 267
66.61, 254
66.62, 273
66.63, 263
66.64, 252
66.65, 261
66.66, 264
66.67, 263
66.68, 259
66.69, 238
66.7, 274
66.71, 265
66.72, 289
66.73, 242
66.74, 261
66.75, 297
66.76, 273
66.77, 253
66.78, 287
66.79, 257
66.8, 261
66.81, 252
66.82, 281
66.83, 259
66.84, 237
66.85, 255
66.86, 291
66.87, 260
66.88, 286
66.89, 268
66.9, 271
66.91, 275
66.92, 266
66.93, 244
66.94, 259
66.95, 276
66.96, 233
66.97, 279
66.98, 285
66.99, 253
67, 237
67.01, 266
67.02, 251
67.03, 252
67.04, 241
67.05, 245
67.06, 280
67.07, 251
67.08, 261
67.09, 271
67.1, 299
67.11, 256
67.12, 289
67.13, 289
67.14, 272
67.15, 254
67.16, 301
67.17, 263
67.18, 274
67.19, 290
67.2, 281
67.21, 266
67.22, 258
67.23, 266
67.24, 272
67.25, 263
67.26, 252
67.27, 251
67.28, 258
67.29, 281
67.3, 247
67.31, 259
67.32, 266
67.33, 250
67.34, 237
67.35, 263
67.36, 246
67.37, 251
67.38, 245
67.39, 302
67.4, 265
67.41, 282
67.42, 230
67.43, 254
67.44, 240
67.45, 271
67.46, 255
67.47, 253
67.48, 301
67.49, 255
67.5, 256
67.51, 273
67.52, 265
67.53, 274
67.54, 225
67.55, 254
67.56, 252
67.57, 240
67.58, 262
67.59, 273
67.6, 244
67.61, 244
67.62, 261
67.63, 269
67.64, 252
67.65, 246
67.66, 286
67.67, 243
67.68, 283
67.69, 268
67.7, 289
67.71, 294
67.72, 265
67.73, 267
67.74, 275
67.75, 261
67.76, 271
67.77, 279
67.78, 258
67.79, 275
67.8, 211
67.81, 272
67.82, 244
67.83, 262
67.84, 289
67.85, 270
67.86, 245
67.87, 239
67.88, 270
67.89, 252
67.9, 285
67.91, 253
67.92, 267
67.93, 251
67.94, 225
67.95, 248
67.96, 262
67.97, 272
67.98, 249
67.99, 246
68, 258
68.01, 252
68.02, 246
68.03, 281
68.04, 259
68.05, 227
68.06, 264
68.07, 272
68.08, 259
68.09, 266
68.1, 249
68.11, 251
68.12, 259
68.13, 282
68.14, 264
68.15, 244
68.16, 229
68.17, 268
68.18, 245
68.19, 257
68.2, 263
68.21, 255
68.22, 263
68.23, 250
68.24, 267
68.25, 250
68.26, 278
68.27, 277
68.28, 275
68.29, 238
68.3, 286
68.31, 246
68.32, 263
68.33, 265
68.34, 275
68.35, 259
68.36, 274
68.37, 280
68.38, 270
68.39, 253
68.4, 245
68.41, 266
68.42, 276
68.43, 289
68.44, 264
68.45, 272
68.46, 269
68.47, 274
68.48, 259
68.49, 273
68.5, 304
68.51, 272
68.52, 290
68.53, 272
68.54, 258
68.55, 239
68.56, 267
68.57, 264
68.58, 281
68.59, 259
68.6, 263
68.61, 252
68.62, 262
68.63, 281
68.64, 281
68.65, 253
68.66, 254
68.67, 261
68.68, 258
68.69, 271
68.7, 253
68.71, 268
68.72, 231
68.73, 277
68.74, 269
68.75, 248
68.76, 272
68.77, 273
68.78, 285
68.79, 274
68.8, 263
68.81, 256
68.82, 234
68.83, 259
68.84, 254
68.85, 284
68.86, 261
68.87, 247
68.88, 255
68.89, 290
68.9, 280
68.91, 261
68.92, 252
68.93, 284
68.94, 269
68.95, 268
68.96, 260
68.97, 268
68.98, 268
68.99, 246
69, 257
69.01, 271
69.02, 252
69.03, 243
69.04, 246
69.05, 250
69.06, 277
69.07, 295
69.08, 241
69.09, 224
69.1, 262
69.11, 262
69.12, 250
69.13, 285
69.14, 278
69.15, 224
69.16, 266
69.17, 266
69.18, 244
69.19, 270
69.2, 259
69.21, 268
69.22, 246
69.23, 235
69.24, 246
69.25, 271
69.26, 254
69.27, 259
69.28, 256
69.29, 281
69.3, 271
69.31, 242
69.32, 273
69.33, 255
69.34, 227
69.35, 268
69.36, 278
69.37, 279
69.38, 275
69.39, 249
69.4, 231
69.41, 268
69.42, 274
69.43, 281
69.44, 250
69.45, 243
69.46, 260
69.47, 240
69.48, 267
69.49, 267
69.5, 236
69.51, 269
69.52, 288
69.53, 288
69.54, 275
69.55, 264
69.56, 263
69.57, 261
69.58, 272
69.59, 264
69.6, 276
69.61, 249
69.62, 250
69.63, 261
69.64, 267
69.65, 275
69.66, 250
69.67, 278
69.68, 275
69.69, 291
69.7, 263
69.71, 266
69.72, 262
69.73, 288
69.74, 242
69.75, 264
69.76, 249
69.77, 258
69.78, 270
69.79, 259
69.8, 269
69.81, 268
69.82, 267
69.83, 255
69.84, 277
69.85, 258
69.86, 262
69.87, 221
69.88, 263
69.89, 237
69.9, 237
69.91, 262
69.92, 258
69.93, 299
69.94, 231
69.95, 240
69.96, 276
69.97, 254
69.98, 260
69.99, 259
70, 250