5, 147
5.01, 122
5.02, 138
5.03, 159
5.04, 126
5.05, 168
5.06, 161
5.07, 167
5.08, 149
5.09, 139
5.1, 152
5.11, 138
5.12, 141
5.13, 152
5.14, 164
5.15, 158
5.16, 157
5.17, 133
5.18, 147
5.19, 154
5.2, 171
5.21, 149
5.22, 170
5.23, 137
5.24, 153
5.25, 150
5.26, 160
5.27, 153
5.28, 160
5.29, 151
5.3, 146
5.31, 151
5.32, 164
5.33, 148
5.34, 150
5.35, 172
5.36, 163
5.37, 143
5.38, 153
5.39, 155
5.4, 143
5.41, 159
5.42, 140
5.43, 150
5.44, 166
5.45, 146
5.46, 140
5.47, 134
5.48, 153
5.49, 152
5.5, 159
5.51, 144
5.52, 127
5.53, 145
5.54, 143
5.55, 137
5.56, 147
5.57, 156
5.58, 143
5.59, 183
5.6, 157
5.61, 151
5.62, 148
5.63, 137
5.64, 152
5.65, 145
5.66, 128
5.67, 156
5.68, 131
5.69, 136
5.7, 149
5.71, 150
5.72, 162
5.73, 142
5.74, 163
5.75, 167
5.76, 172
5.77, 163
5.78, 174
5.79, 132
5.8, 161
5.81, 134
5.82, 159
5.83, 145
5.84, 162
5.85, 166
5.86, 190
5.87, 149
5.88, 146
5.89, 162
5.9, 152
5.91, 150
5.92, 156
5.93, 154
5.94, 144
5.95, 158
5.96, 148
5.97, 132
5.98, 148
5.99, 143
6, 148
6.01, 145
6.02, 163
6.03, 171
6.04, 149
6.05, 166
6.06, 147
6.07, 153
6.08, 157
6.09, 135
6.1, 150
6.11, 145
6.12, 136
6.13, 150
6.14, 138
6.15, 144
6.16, 162
6.17, 172
6.18, 168
6.19, 151
6.2, 162
6.21, 150
6.22, 150
6.23, 140
6.24, 181
6.25, 148
6.26, 149
6.27, 156
6.28, 153
6.29, 155
6.3, 160
6.31, 159
6.32, 162
6.33, 151
6.34, 164
6.35, 156
6.36, 152
6.37, 140
6.38, 143
6.39, 138
6.4, 165
6.41, 152
6.42, 165
6.43, 168
6.44, 154
6.45, 142
6.46, 158
6.47, 153
6.48, 166
6.49, 149
6.5, 155
6.51, 164
6.52, 140
6.53, 152
6.54, 162
6.55, 133
6.56, 141
6.57, 163
6.58, 134
6.59, 177
6.6, 137
6.61, 175
6.62, 162
6.63, 173
6.64, 166
6.65, 150
6.66, 153
6.67, 150
6.68, 163
6.69, 144
6.7, 149
6.71, 137
6.72, 152
6.73, 159
6.74, 162
6.75, 143
6.76, 140
6.77, 160
6.78, 161
6.79, 195
6.8, 174
6.81, 150
6.82, 143
6.83, 163
6.84, 161
6.85, 154
6.86, 164
6.87, 185
6.88, 153
6.89, 125
6.9, 134
6.91, 154
6.92, 167
6.93, 178
6.94, 152
6.95, 157
6.96, 149
6.97, 145
6.98, 157
6.99, 178
7, 184
7.01, 171
7.02, 143
7.03, 177
7.04, 154
7.05, 167
7.06, 152
7.07, 141
7.08, 157
7.09, 170
7.1, 188
7.11, 162
7.12, 190
7.13, 157
7.14, 177
7.15, 196
7.16, 169
7.17, 189
7.18, 184
7.19, 165
7.2, 154
7.21, 157
7.22, 169
7.23, 140
7.24, 164
7.25, 141
7.26, 171
7.27, 162
7.28, 155
7.29, 159
7.3, 150
7.31, 175
7.32, 154
7.33, 184
7.34, 149
7.35, 153
7.36, 165
7.37, 163
7.38, 187
7.39, 182
7.4, 148
7.41, 147
7.42, 193
7.43, 153
7.44, 174
7.45, 185
7.46, 158
7.47, 166
7.48, 164
7.49, 164
7.5, 162
7.51, 170
7.52, 186
7.53, 188
7.54, 185
7.55, 170
7.56, 156
7.57, 165
7.58, 201
7.59, 183
7.6, 172
7.61, 177
7.62, 169
7.63, 167
7.64, 159
7.65, 161
7.66, 166
7.67, 164
7.68, 186
7.69, 147
7.7, 177
7.71, 184
7.72, 179
7.73, 170
7.74, 155
7.75, 141
7.76, 164
7.77, 164
7.78, 159
7.79, 167
7.8, 159
7.81, 152
7.82, 158
7.83, 186
7.84, 153
7.85, 173
7.86, 170
7.87, 171
7.88, 174
7.89, 173
7.9, 168
7.91, 170
7.92, 162
7.93, 160
7.94, 165
7.95, 134
7.96, 161
7.97, 164
7.98, 154
7.99, 162
8, 162
8.01, 152
8.02, 185
8.03, 173
8.04, 178
8.05, 177
8.06, 192
8.07, 146
8.08, 168
8.09, 157
8.1, 143
8.11, 164
8.12, 180
8.13, 157
8.14, 174
8.15, 169
8.16, 166
8.17, 185
8.18, 183
8.19, 164
8.2, 161
8.21, 155
8.22, 138
8.23, 163
8.24, 186
8.25, 178
8.26, 140
8.27, 145
8.28, 144
8.29, 165
8.3, 159
8.31, 138
8.32, 185
8.33, 147
8.34, 162
8.35, 162
8.36, 182
8.37, 159
8.38, 149
8.39, 167
8.4, 151
8.41, 171
8.42, 159
8.43, 161
8.44, 182
8.45, 167
8.46, 158
8.47, 159
8.48, 155
8.49, 148
8.5, 146
8.51, 174
8.52, 172
8.53, 159
8.54, 178
8.55, 166
8.56, 153
8.57, 137
8.58, 135
8.59, 172
8.6, 170
8.61, 167
8.62, 158
8.63, 156
8.64, 153
8.65, 169
8.66, 171
8.67, 182
8.68, 158
8.69, 172
8.7, 154
8.71, 165
8.72, 143
8.73, 171
8.74, 143
8.75, 160
8.76, 162
8.77, 163
8.78, 184
8.79, 155
8.8, 164
8.81, 144
8.82, 155
8.83, 147
8.84, 142
8.85, 172
8.86, 183
8.87, 142
8.88, 175
8.89, 156
8.9, 141
8.91, 150
8.92, 173
8.93, 176
8.94, 151
8.95, 160
8.96, 149
8.97, 158
8.98, 193
8.99, 174
9, 150
9.01, 156
9.02, 121
9.03, 163
9.04, 160
9.05, 179
9.06, 166
9.07, 169
9.08, 165
9.09, 162
9.1, 175
9.11, 159
9.12, 159
9.13, 156
9.14, 143
9.15, 171
9.16, 158
9.17, 163
9.18, 143
9.19, 156
9.2, 146
9.21, 158
9.22, 163
9.23, 186
9.24, 171
9.25, 151
9.26, 178
9.27, 169
9.28, 176
9.29, 145
9.3, 163
9.31, 146
9.32, 162
9.33, 179
9.34, 131
9.35, 155
9.36, 156
9.37, 159
9.38, 155
9.39, 168
9.4, 143
9.41, 154
9.42, 170
9.43, 157
9.44, 159
9.45, 155
9.46, 159
9.47, 158
9.48, 166
9.49, 162
9.5, 151
9.51, 161
9.52, 143
9.53, 188
9.54, 165
9.55, 183
9.56, 169
9.57, 165
9.58, 176
9.59, 152
9.6, 156
9.61, 167
9.62, 157
9.63, 159
9.64, 154
9.65, 168
9.66, 159
9.67, 189
9.68, 154
9.69, 175
9.7, 156
9.71, 177
9.72, 161
9.73, 153
9.74, 188
9.75, 169
9.76, 170
9.77, 160
9.78, 138
9.79, 175
9.8, 135
9.81, 174
9.82, 166
9.83, 148
9.84, 155
9.85, 180
9.86, 147
9.87, 157
9.88, 147
9.89, 184
9.9, 186
9.91, 170
9.92, 165
9.93, 162
9.94, 147
9.95, 159
9.96, 134
9.97, 168
9.98, 183
9.99, 156
10, 154
10.01, 173
10.02, 170
10.03, 175
10.04, 175
10.05, 160
10.06, 165
10.07, 163
10.08, 178
10.09, 160
10.1, 151
10.11, 188
10.12, 147
10.13, 168
10.14, 166
10.15, 162
10.16, 142
10.17, 153
10.18, 156
10.19, 160
10.2, 155
10.21, 148
10.22, 164
10.23, 175
10.24, 157
10.25, 144
10.26, 167
10.27, 155
10.28, 163
10.29, 153
10.3, 176
10.31, 173
10.32, 162
10.33, 164
10.34, 179
10.35, 171
10.36, 144
10.37, 163
10.38, 169
10.39, 157
10.4, 155
10.41, 175
10.42, 158
10.43, 177
10.44, 176
10.45, 163
10.46, 155
10.47, 175
10.48, 167
10.49, 181
10.5, 182
10.51, 161
10.52, 180
10.53, 151
10.54, 187
10.55, 175
10.56, 168
10.57, 163
10.58, 165
10.59, 137
10.6, 141
10.61, 152
10.62, 186
10.63, 159
10.64, 178
10.65, 172
10.66, 173
10.67, 132
10.68, 174
10.69, 162
10.7, 171
10.71, 173
10.72, 143
10.73, 160
10.74, 175
10.75, 200
10.76, 189
10.77, 149
10.78, 177
10.79, 155
10.8, 177
10.81, 175
10.82, 176
10.83, 158
10.84, 172
10.85, 158
10.86, 177
10.87, 164
10.88, 154
10.89, 198
10.9, 178
10.91, 160
10.92, 176
10.93, 168
10.94, 180
10.95, 169
10.96, 173
10.97, 181
10.98, 173
10.99, 161
11, 176
11.01, 180
11.02, 168
11.03, 160
11.04, 152
11.05, 171
11.06, 168
11.07, 169
11.08, 181
11.09, 163
11.1, 189
11.11, 159
11.12, 184
11.13, 174
11.14, 199
11.15, 157
11.16, 171
11.17, 170
11.18, 163
11.19, 187
11.2, 192
11.21, 171
11.22, 184
11.23, 156
11.24, 177
11.25, 171
11.26, 172
11.27, 145
11.28, 156
11.29, 168
11.3, 159
11.31, 175
11.32, 164
11.33, 150
11.34, 178
11.35, 170
11.36, 167
11.37, 179
11.38, 177
11.39, 178
11.4, 169
11.41, 165
11.42, 178
11.43, 180
11.44, 170
11.45, 156
11.46, 175
11.47, 168
11.48, 167
11.49, 184
11.5, 175
11.51, 175
11.52, 185
11.53, 173
11.54, 167
11.55, 192
11.56, 172
11.57, 188
11.58, 158
11.59, 176
11.6, 160
11.61, 157
11.62, 157
11.63, 186
11.64, 167
11.65, 166
11.66, 184
11.67, 149
11.68, 186
11.69, 176
11.7, 164
11.71, 169
11.72, 143
11.73, 212
11.74, 173
11.75, 186
11.76, 176
11.77, 154
11.78, 157
11.79, 164
11.8, 183
11.81, 176
11.82, 177
11.83, 147
11.84, 136
11.85, 174
11.86, 158
11.87, 158
11.88, 172
11.89, 178
11.9, 179
11.91, 152
11.92, 165
11.93, 168
11.94, 194
11.95, 163
11.96, 148
11.97, 186
11.98, 192
11.99, 166
12, 161
12.01, 179
12.02, 179
12.03, 170
12.04, 165
12.05, 162
12.06, 166
12.07, 175
12.08, 197
12.09, 169
12.1, 167
12.11, 177
12.12, 179
12.13, 172
12.14, 163
12.15, 182
12.16, 173
12.17, 191
12.18, 180
12.19, 188
12.2, 183
12.21, 196
12.22, 191
12.23, 150
12.24, 161
12.25, 169
12.26, 202
12.27, 182
12.28, 174
12.29, 175
12.3, 184
12.31, 178
12.32, 167
12.33, 163
12.34, 179
12.35, 157
12.36, 186
12.37, 163
12.38, 180
12.39, 163
12.4, 164
12.41, 176
12.42, 184
12.43, 170
12.44, 166
12.45, 158
12.46, 156
12.47, 177
12.48, 182
12.49, 168
12.5, 181
12.51, 168
12.52, 172
12.53, 156
12.54, 177
12.55, 177
12.56, 187
12.57, 162
12.58, 158
12.59, 189
12.6, 165
12.61, 184
12.62, 170
12.63, 147
12.64, 183
12.65, 141
12.66, 172
12.67, 187
12.68, 180
12.69, 170
12.7, 178
12.71, 203
12.72, 189
12.73, 183
12.74, 169
12.75, 178
12.76, 174
12.77, 170
12.78, 194
12.79, 165
12.8, 167
12.81, 176
12.82, 164
12.83, 184
12.84, 176
12.85, 188
12.86, 180
12.87, 185
12.88, 184
12.89, 161
12.9, 184
12.91, 157
12.92, 174
12.93, 157
12.94, 187
12.95, 160
12.96, 172
12.97, 192
12.98, 170
12.99, 172
13, 165
13.01, 175
13.02, 192
13.03, 172
13.04, 175
13.05, 167
13.06, 172
13.07, 187
13.08, 167
13.09, 187
13.1, 184
13.11, 161
13.12, 169
13.13, 185
13.14, 192
13.15, 187
13.16, 174
13.17, 179
13.18, 179
13.19, 187
13.2, 158
13.21, 175
13.22, 159
13.23, 164
13.24, 176
13.25, 155
13.26, 187
13.27, 193
13.28, 185
13.29, 175
13.3, 171
13.31, 169
13.32, 195
13.33, 180
13.34, 165
13.35, 163
13.36, 171
13.37, 168
13.38, 161
13.39, 165
13.4, 173
13.41, 146
13.42, 168
13.43, 201
13.44, 210
13.45, 164
13.46, 170
13.47, 192
13.48, 173
13.49, 163
13.5, 184
13.51, 178
13.52, 181
13.53, 165
13.54, 160
13.55, 163
13.56, 180
13.57, 203
13.58, 179
13.59, 179
13.6, 172
13.61, 155
13.62, 186
13.63, 167
13.64, 198
13.65, 159
13.66, 153
13.67, 175
13.68, 195
13.69, 194
13.7, 160
13.71, 176
13.72, 176
13.73, 167
13.74, 195
13.75, 185
13.76, 176
13.77, 175
13.78, 179
13.79, 172
13.8, 165
13.81, 205
13.82, 196
13.83, 166
13.84, 193
13.85, 183
13.86, 186
13.87, 197
13.88, 203
13.89, 177
13.9, 190
13.91, 168
13.92, 159
13.93, 156
13.94, 185
13.95, 168
13.96, 183
13.97, 187
13.98, 180
13.99, 175
14, 184
14.01, 183
14.02, 166
14.03, 163
14.04, 182
14.05, 156
14.06, 165
14.07, 162
14.08, 187
14.09, 159
14.1, 178
14.11, 185
14.12, 162
14.13, 169
14.14, 181
14.15, 198
14.16, 162
14.17, 190
14.18, 163
14.19, 183
14.2, 148
14.21, 164
14.22, 186
14.23, 166
14.24, 202
14.25, 189
14.26, 185
14.27, 190
14.28, 162
14.29, 199
14.3, 204
14.31, 179
14.32, 179
14.33, 161
14.34, 180
14.35, 175
14.36, 197
14.37, 194
14.38, 177
14.39, 182
14.4, 175
14.41, 170
14.42, 174
14.43, 186
14.44, 182
14.45, 196
14.46, 183
14.47, 175
14.48, 179
14.49, 175
14.5, 185
14.51, 201
14.52, 173
14.53, 185
14.54, 158
14.55, 171
14.56, 187
14.57, 185
14.58, 165
14.59, 185
14.6, 146
14.61, 176
14.62, 171
14.63, 175
14.64, 161
14.65, 171
14.66, 184
14.67, 189
14.68, 155
14.69, 161
14.7, 156
14.71, 178
14.72, 203
14.73, 182
14.74, 186
14.75, 182
14.76, 178
14.77, 167
14.78, 182
14.79, 189
14.8, 178
14.81, 197
14.82, 179
14.83, 177
14.84, 165
14.85, 185
14.86, 180
14.87, 199
14.88, 147
14.89, 165
14.9, 154
14.91, 185
14.92, 204
14.93, 157
14.94, 180
14.95, 182
14.96, 207
14.97, 162
14.98, 167
14.99, 186
15, 191
15.01, 182
15.02, 161
15.03, 159
15.04, 198
15.05, 169
15.06, 162
15.07, 176
15.08, 165
15.09, 186
15.1, 182
15.11, 198
15.12, 182
15.13, 168
15.14, 177
15.15, 178
15.16, 190
15.17, 180
15.18, 153
15.19, 178
15.2, 188
15.21, 170
15.22, 177
15.23, 186
15.24, 185
15.25, 173
15.26, 158
15.27, 159
15.28, 204
15.29, 181
15.3, 178
15.31, 187
15.32, 172
15.33, 183
15.34, 171
15.35, 178
15.36, 185
15.37, 191
15.38, 194
15.39, 180
15.4, 185
15.41, 179
15.42, 180
15.43, 175
15.44, 193
15.45, 189
15.46, 166
15.47, 163
15.48, 163
15.49, 199
15.5, 199
15.51, 206
15.52, 188
15.53, 181
15.54, 162
15.55, 146
15.56, 193
15.57, 186
15.58, 183
15.59, 168
15.6, 181
15.61, 156
15.62, 196
15.63, 196
15.64, 179
15.65, 179
15.66, 195
15.67, 165
15.68, 182
15.69, 174
15.7, 194
15.71, 168
15.72, 182
15.73, 180
15.74, 181
15.75, 178
15.76, 166
15.77, 165
15.78, 196
15.79, 193
15.8, 174
15.81, 182
15.82, 190
15.83, 170
15.84, 165
15.85, 204
15.86, 165
15.87, 176
15.88, 170
15.89, 190
15.9, 185
15.91, 178
15.92, 165
15.93, 190
15.94, 216
15.95, 177
15.96, 176
15.97, 207
15.98, 201
15.99, 177
16, 184
16.01, 197
16.02, 176
16.03, 163
16.04, 189
16.05, 178
16.06, 188
16.07, 182
16.08, 175
16.09, 198
16.1, 179
16.11, 184
16.12, 175
16.13, 167
16.14, 170
16.15, 188
16.16, 200
16.17, 185
16.18, 181
16.19, 181
16.2, 172
16.21, 195
16.22, 181
16.23, 201
16.24, 200
16.25, 164
16.26, 178
16.27, 165
16.28, 169
16.29, 182
16.3, 163
16.31, 197
16.32, 178
16.33, 180
16.34, 168
16.35, 211
16.36, 198
16.37, 191
16.38, 185
16.39, 198
16.4, 207
16.41, 199
16.42, 200
16.43, 186
16.44, 184
16.45, 208
16.46, 188
16.47, 181
16.48, 179
16.49, 184
16.5, 180
16.51, 199
16.52, 163
16.53, 180
16.54, 182
16.55, 183
16.56, 190
16.57, 187
16.58, 194
16.59, 191
16.6, 163
16.61, 179
16.62, 176
16.63, 173
16.64, 173
16.65, 177
16.66, 160
16.67, 192
16.68, 188
16.69, 184
16.7, 182
16.71, 196
16.72, 166
16.73, 200
16.74, 182
16.75, 153
16.76, 193
16.77, 183
16.78, 167
16.79, 187
16.8, 184
16.81, 211
16.82, 169
16.83, 194
16.84, 195
16.85, 193
16.86, 185
16.87, 207
16.88, 169
16.89, 185
16.9, 159
16.91, 198
16.92, 194
16.93, 184
16.94, 188
16.95, 172
16.96, 196
16.97, 193
16.98, 202
16.99, 165
17, 170
17.01, 176
17.02, 187
17.03, 179
17.04, 191
17.05, 190
17.06, 201
17.07, 179
17.08, 170
17.09, 187
17.1, 192
17.11, 201
17.12, 170
17.13, 169
17.14, 178
17.15, 183
17.16, 172
17.17, 180
17.18, 186
17.19, 190
17.2, 180
17.21, 186
17.22, 197
17.23, 183
17.24, 198
17.25, 193
17.26, 199
17.27, 177
17.28, 175
17.29, 180
17.3, 180
17.31, 190
17.32, 171
17.33, 201
17.34, 177
17.35, 185
17.36, 197
17.37, 188
17.38, 185
17.39, 187
17.4, 183
17.41, 169
17.42, 209
17.43, 167
17.44, 187
17.45, 191
17.46, 202
17.47, 207
17.48, 183
17.49, 216
17.5, 196
17.51, 189
17.52, 199
17.53, 183
17.54, 175
17.55, 174
17.56, 203
17.57, 202
17.58, 180
17.59, 172
17.6, 203
17.61, 207
17.62, 175
17.63, 177
17.64, 173
17.65, 200
17.66, 173
17.67, 183
17.68, 162
17.69, 195
17.7, 165
17.71, 198
17.72, 199
17.73, 173
17.74, 199
17.75, 188
17.76, 190
17.77, 177
17.78, 211
17.79, 198
17.8, 178
17.81, 201
17.82, 171
17.83, 189
17.84, 197
17.85, 189
17.86, 189
17.87, 172
17.88, 185
17.89, 188
17.9, 193
17.91, 179
17.92, 175
17.93, 192
17.94, 173
17.95, 184
17.96, 205
17.97, 178
17.98, 189
17.99, 192
18, 194
18.01, 196
18.02, 193
18.03, 188
18.04, 175
18.05, 183
18.06, 180
18.07, 190
18.08, 196
18.09, 215
18.1, 156
18.11, 201
18.12, 193
18.13, 184
18.14, 209
18.15, 182
18.16, 206
18.17, 183
18.18, 172
18.19, 212
18.2, 191
18.21, 190
18.22, 178
18.23, 192
18.24, 189
18.25, 174
18.26, 200
18.27, 182
18.28, 198
18.29, 203
18.3, 198
18.31, 199
18.32, 194
18.33, 188
18.34, 194
18.35, 206
18.36, 191
18.37, 217
18.38, 186
18.39, 177
18.4, 187
18.41, 188
18.42, 185
18.43, 182
18.44, 192
18.45, 187
18.46, 195
18.47, 179
18.48, 198
18.49, 196
18.5, 203
18.51, 229
18.52, 191
18.53, 216
18.54, 169
18.55, 184
18.56, 170
18.57, 157
18.58, 205
18.59, 182
18.6, 193
18.61, 166
18.62, 203
18.63, 173
18.64, 211
18.65, 189
18.66, 182
18.67, 197
18.68, 187
18.69, 186
18.7, 189
18.71, 185
18.72, 163
18.73, 194
18.74, 202
18.75, 207
18.76, 192
18.77, 184
18.78, 208
18.79, 203
18.8, 186
18.81, 194
18.82, 171
18.83, 181
18.84, 191
18.85, 182
18.86, 206
18.87, 201
18.88, 173
18.89, 215
18.9, 168
18.91, 176
18.92, 188
18.93, 207
18.94, 187
18.95, 179
18.96, 191
18.97, 185
18.98, 178
18.99, 182
19, 174
19.01, 201
19.02, 193
19.03, 172
19.04, 199
19.05, 183
19.06, 213
19.07, 189
19.08, 226
19.09, 195
19.1, 181
19.11, 192
19.12, 191
19.13, 173
19.14, 199
19.15, 201
19.16, 199
19.17, 179
19.18, 167
19.19, 190
19.2, 203
19.21, 181
19.22, 182
19.23, 201
19.24, 184
19.25, 191
19.26, 188
19.27, 183
19.28, 202
19.29, 193
19.3, 182
19.31, 201
19.32, 186
19.33, 196
19.34, 214
19.35, 203
19.36, 185
19.37, 193
19.38, 197
19.39, 176
19.4, 216
19.41, 185
19.42, 204
19.43, 184
19.44, 210
19.45, 186
19.46, 167
19.47, 215
19.48, 207
19.49, 186
19.5, 212
19.51, 216
19.52, 203
19.53, 179
19.54, 182
19.55, 193
19.56, 202
19.57, 197
19.58, 215
19.59, 196
19.6, 189
19.61, 205
19.62, 164
19.63, 182
19.64, 190
19.65, 176
19.66, 178
19.67, 182
19.68, 173
19.69, 176
19.7, 201
19.71, 196
19.72, 184
19.73, 189
19.74, 227
19.75, 196
19.76, 193
19.77, 202
19.78, 201
19.79, 193
19.8, 208
19.81, 176
19.82, 189
19.83, 198
19.84, 178
19.85, 178
19.86, 207
19.87, 203
19.88, 179
19.89, 196
19.9, 186
19.91, 167
19.92, 184
19.93, 197
19.94, 167
19.95, 197
19.96, 191
19.97, 183
19.98, 220
19.99, 175
20, 214
20.01, 193
20.02, 165
20.03, 186
20.04, 221
20.05, 194
20.06, 177
20.07, 213
20.08, 197
20.09, 202
20.1, 206
20.11, 193
20.12, 183
20.13, 220
20.14, 180
20.15, 192
20.16, 221
20.17, 186
20.18, 198
20.19, 187
20.2, 194
20.21, 217
20.22, 190
20.23, 219
20.24, 182
20.25, 185
20.26, 212
20.27, 176
20.28, 192
20.29, 177
20.3, 191
20.31, 197
20.32, 212
20.33, 177
20.34, 192
20.35, 179
20.36, 175
20.37, 197
20.38, 184
20.39, 206
20.4, 197
20.41, 193
20.42, 194
20.43, 191
20.44, 206
20.45, 200
20.46, 190
20.47, 190
20.48, 202
20.49, 202
20.5, 208
20.51, 194
20.52, 188
20.53, 180
20.54, 208
20.55, 201
20.56, 197
20.57, 187
20.58, 196
20.59, 183
20.6, 192
20.61, 207
20.62, 192
20.63, 165
20.64, 211
20.65, 183
20.66, 179
20.67, 189
20.68, 177
20.69, 188
20.7, 204
20.71, 201
20.72, 197
20.73, 187
20.74, 194
20.75, 199
20.76, 214
20.77, 168
20.78, 173
20.79, 226
20.8, 185
20.81, 184
20.82, 201
20.83, 192
20.84, 201
20.85, 187
20.86, 198
20.87, 202
20.88, 189
20.89, 201
20.9, 200
20.91, 222
20.92, 208
20.93, 180
20.94, 190
20.95, 186
20.96, 177
20.97, 216
20.98, 198
20.99, 192
21, 210
21.01, 188
21.02, 210
21.03, 200
21.04, 201
21.05, 196
21.06, 191
21.07, 195
21.08, 165
21.09, 202
21.1, 213
21.11, 198
21.12, 213
21.13, 222
21.14, 171
21.15, 176
21.16, 172
21.17, 202
21.18, 175
21.19, 183
21.2, 182
21.21, 222
21.22, 202
21.23, 203
21.24, 195
21.25, 194
21.26, 205
21.27, 176
21.28, 200
21.29, 187
21.3, 201
21.31, 170
21.32, 204
21.33, 197
21.34, 211
21.35, 217
21.36, 191
21.37, 189
21.38, 178
21.39, 196
21.4, 171
21.41, 198
21.42, 220
21.43, 186
21.44, 199
21.45, 181
21.46, 194
21.47, 194
21.48, 204
21.49, 181
21.5, 190
21.51, 190
21.52, 198
21.53, 189
21.54, 182
21.55, 189
21.56, 170
21.57, 193
21.58, 179
21.59, 204
21.6, 180
21.61, 225
21.62, 210
21.63, 193
21.64, 220
21.65, 218
21.66, 202
21.67, 187
21.68, 178
21.69, 201
21.7, 194
21.71, 213
21.72, 174
21.73, 187
21.74, 172
21.75, 174
21.76, 183
21.77, 181
21.78, 199
21.79, 204
21.8, 166
21.81, 184
21.82, 201
21.83, 196
21.84, 197
21.85, 193
21.86, 190
21.87, 215
21.88, 201
21.89, 195
21.9, 203
21.91, 208
21.92, 221
21.93, 176
21.94, 183
21.95, 185
21.96, 185
21.97, 215
21.98, 216
21.99, 186
22, 176
22.01, 219
22.02, 218
22.03, 199
22.04, 206
22.05, 189
22.06, 196
22.07, 210
22.08, 185
22.09, 172
22.1, 195
22.11, 179
22.12, 194
22.13, 190
22.14, 210
22.15, 214
22.16, 221
22.17, 207
22.18, 207
22.19, 186
22.2, 182
22.21, 227
22.22, 208
22.23, 201
22.24, 209
22.25, 196
22.26, 177
22.27, 180
22.28, 194
22.29, 203
22.3, 183
22.31, 218
22.32, 202
22.33, 163
22.34, 195
22.35, 215
22.36, 177
22.37, 232
22.38, 203
22.39, 198
22.4, 200
22.41, 189
22.42, 191
22.43, 188
22.44, 210
22.45, 213
22.46, 183
22.47, 226
22.48, 191
22.49, 191
22.5, 216
22.51, 187
22.52, 216
22.53, 218
22.54, 206
22.55, 230
22.56, 177
22.57, 180
22.58, 210
22.59, 187
22.6, 191
22.61, 201
22.62, 201
22.63, 207
22.64, 200
22.65, 230
22.66, 185
22.67, 204
22.68, 207
22.69, 202
22.7, 202
22.71, 199
22.72, 194
22.73, 204
22.74, 190
22.75, 218
22.76, 166
22.77, 195
22.78, 200
22.79, 206
22.8, 212
22.81, 200
22.82, 193
22.83, 189
22.84, 192
22.85, 180
22.86, 190
22.87, 203
22.88, 178
22.89, 204
22.9, 199
22.91, 198
22.92, 197
22.93, 187
22.94, 198
22.95, 178
22.96, 207
22.97, 203
22.98, 202
22.99, 180
23, 209
23.01, 199
23.02, 216
23.03, 184
23.04, 203
23.05, 174
23.06, 225
23.07, 213
23.08, 210
23.09, 204
23.1, 188
23.11, 203
23.12, 191
23.13, 191
23.14, 207
23.15, 195
23.16, 192
23.17, 200
23.18, 178
23.19, 207
23.2, 214
23.21, 187
23.22, 218
23.23, 199
23.24, 215
23.25, 213
23.26, 231
23.27, 206
23.28, 194
23.29, 201
23.3, 195
23.31, 198
23.32, 185
23.33, 192
23.34, 187
23.35, 205
23.36, 211
23.37, 173
23.38, 237
23.39, 202
23.4, 211
23.41, 188
23.42, 211
23.43, 214
23.44, 169
23.45, 205
23.46, 202
23.47, 169
23.48, 192
23.49, 207
23.5, 177
23.51, 215
23.52, 196
23.53, 187
23.54, 199
23.55, 213
23.56, 196
23.57, 184
23.58, 199
23.59, 191
23.6, 184
23.61, 205
23.62, 199
23.63, 178
23.64, 199
23.65, 200
23.66, 200
23.67, 220
23.68, 176
23.69, 199
23.7, 206
23.71, 214
23.72, 165
23.73, 187
23.74, 186
23.75, 189
23.76, 190
23.77, 207
23.78, 206
23.79, 234
23.8, 226
23.81, 196
23.82, 210
23.83, 219
23.84, 206
23.85, 204
23.86, 216
23.87, 207
23.88, 198
23.89, 195
23.9, 197
23.91, 185
23.92, 210
23.93, 214
23.94, 214
23.95, 185
23.96, 187
23.97, 188
23.98, 206
23.99, 224
24, 211
24.01, 208
24.02, 232
24.03, 212
24.04, 236
24.05, 209
24.06, 225
24.07, 205
24.08, 205
24.09, 222
24.1, 228
24.11, 244
24.12, 236
24.13, 231
24.14, 232
24.15, 244
24.16, 271
24.17, 238
24.18, 243
24.19, 234
24.2, 215
24.21, 240
24.22, 259
24.23, 247
24.24, 231
24.25, 258
24.26, 245
24.27, 229
24.28, 228
24.29, 229
24.3, 238
24.31, 216
24.32, 214
24.33, 193
24.34, 230
24.35, 176
24.36, 194
24.37, 221
24.38, 216
24.39, 204
24.4, 186
24.41, 225
24.42, 207
24.43, 210
24.44, 227
24.45, 211
24.46, 209
24.47, 205
24.48, 216
24.49, 205
24.5, 186
24.51, 222
24.52, 196
24.53, 203
24.54, 225
24.55, 192
24.56, 224
24.57, 179
24.58, 192
24.59, 208
24.6, 172
24.61, 216
24.62, 201
24.63, 217
24.64, 217
24.65, 192
24.66, 224
24.67, 195
24.68, 231
24.69, 189
24.7, 200
24.71, 205
24.72, 219
24.73, 196
24.74, 192
24.75, 214
24.76, 189
24.77, 219
24.78, 207
24.79, 194
24.8, 201
24.81, 197
24.82, 220
24.83, 212
24.84, 185
24.85, 211
24.86, 216
24.87, 197
24.88, 242
24.89, 203
24.9, 183
24.91, 223
24.92, 199
24.93, 173
24.94, 196
24.95, 195
24.96, 208
24.97, 207
24.98, 195
24.99, 184
25, 186
25.01, 214
25.02, 212
25.03, 192
25.04, 195
25.05, 218
25.06, 213
25.07, 210
25.08, 197
25.09, 219
25.1, 195
25.11, 189
25.12, 197
25.13, 182
25.14, 216
25.15, 201
25.16, 191
25.17, 179
25.18, 194
25.19, 200
25.2, 192
25.21, 204
25.22, 195
25.23, 207
25.24, 219
25.25, 206
25.26, 212
25.27, 188
25.28, 185
25.29, 182
25.3, 208
25.31, 207
25.32, 183
25.33, 202
25.34, 214
25.35, 194
25.36, 173
25.37, 191
25.38, 188
25.39, 218
25.4, 188
25.41, 210
25.42, 186
25.43, 191
25.44, 200
25.45, 187
25.46, 234
25.47, 188
25.48, 215
25.49, 189
25.5, 226
25.51, 188
25.52, 216
25.53, 206
25.54, 219
25.55, 215
25.56, 195
25.57, 220
25.58, 196
25.59, 180
25.6, 201
25.61, 214
25.62, 203
25.63, 209
25.64, 220
25.65, 209
25.66, 222
25.67, 192
25.68, 186
25.69, 221
25.7, 212
25.71, 221
25.72, 196
25.73, 224
25.74, 195
25.75, 208
25.76, 215
25.77, 204
25.78, 213
25.79, 178
25.8, 166
25.81, 206
25.82, 198
25.83, 178
25.84, 190
25.85, 192
25.86, 197
25.87, 169
25.88, 226
25.89, 206
25.9, 203
25.91, 182
25.92, 198
25.93, 216
25.94, 202
25.95, 218
25.96, 200
25.97, 216
25.98, 193
25.99, 200
26, 190
26.01, 188
26.02, 193
26.03, 190
26.04, 191
26.05, 219
26.06, 211
26.07, 218
26.08, 208
26.09, 195
26.1, 217
26.11, 201
26.12, 211
26.13, 220
26.14, 219
26.15, 188
26.16, 192
26.17, 213
26.18, 212
26.19, 195
26.2, 208
26.21, 224
26.22, 232
26.23, 228
26.24, 230
26.25, 214
26.26, 215
26.27, 208
26.28, 205
26.29, 209
26.3, 197
26.31, 211
26.32, 199
26.33, 173
26.34, 225
26.35, 218
26.36, 224
26.37, 190
26.38, 202
26.39, 188
26.4, 213
26.41, 195
26.42, 204
26.43, 217
26.44, 203
26.45, 198
26.46, 251
26.47, 202
26.48, 190
26.49, 208
26.5, 196
26.51, 189
26.52, 185
26.53, 169
26.54, 194
26.55, 206
26.56, 211
26.57, 223
26.58, 191
26.59, 191
26.6, 190
26.61, 195
26.62, 212
26.63, 232
26.64, 201
26.65, 195
26.66, 196
26.67, 182
26.68, 220
26.69, 206
26.7, 181
26.71, 186
26.72, 218
26.73, 213
26.74, 198
26.75, 182
26.76, 215
26.77, 189
26.78, 182
26.79, 193
26.8, 245
26.81, 191
26.82, 196
26.83, 198
26.84, 204
26.85, 204
26.86, 213
26.87, 195
26.88, 180
26.89, 173
26.9, 205
26.91, 195
26.92, 191
26.93, 198
26.94, 220
26.95, 225
26.96, 184
26.97, 237
26.98, 209
26.99, 171
27, 233
27.01, 196
27.02, 217
27.03, 212
27.04, 188
27.05, 218
27.06, 200
27.07, 215
27.08, 181
27.09, 238
27.1, 209
27.11, 228
27.12, 225
27.13, 191
27.14, 251
27.15, 215
27.16, 209
27.17, 203
27.18, 182
27.19, 204
27.2, 215
27.21, 199
27.22, 231
27.23, 204
27.24, 176
27.25, 214
27.26, 188
27.27, 205
27.28, 219
27.29, 218
27.3, 192
27.31, 214
27.32, 212
27.33, 195
27.34, 216
27.35, 222
27.36, 220
27.37, 212
27.38, 231
27.39, 207
27.4, 224
27.41, 204
27.42, 207
27.43, 176
27.44, 212
27.45, 228
27.46, 181
27.47, 208
27.48, 237
27.49, 213
27.5, 208
27.51, 208
27.52, 189
27.53, 218
27.54, 185
27.55, 193
27.56, 210
27.57, 226
27.58, 224
27.59, 223
27.6, 223
27.61, 248
27.62, 201
27.63, 215
27.64, 224
27.65, 220
27.66, 215
27.67, 200
27.68, 209
27.69, 214
27.7, 186
27.71, 194
27.72, 196
27.73, 209
27.74, 202
27.75, 200
27.76, 195
27.77, 205
27.78, 204
27.79, 191
27.8, 225
27.81, 182
27.82, 206
27.83, 191
27.84, 233
27.85, 200
27.86, 199
27.87, 184
27.88, 200
27.89, 198
27.9, 218
27.91, 208
27.92, 223
27.93, 202
27.94, 220
27.95, 215
27.96, 206
27.97, 226
27.98, 208
27.99, 204
28, 215
28.01, 196
28.02, 212
28.03, 212
28.04, 224
28.05, 186
28.06, 191
28.07, 229
28.08, 197
28.09, 194
28.1, 218
28.11, 220
28.12, 206
28.13, 184
28.14, 198
28.15, 199
28.16, 184
28.17, 201
28.18, 219
28.19, 201
28.2, 200
28.21, 222
28.22, 201
28.23, 209
28.24, 226
28.25, 220
28.26, 226
28.27, 201
28.28, 191
28.29, 180
28.3, 204
28.31, 216
28.32, 202
28.33, 202
28.34, 204
28.35, 220
28.36, 169
28.37, 213
28.38, 198
28.39, 212
28.4, 209
28.41, 211
28.42, 216
28.43, 206
28.44, 191
28.45, 180
28.46, 187
28.47, 204
28.48, 214
28.49, 190
28.5, 228
28.51, 202
28.52, 208
28.53, 198
28.54, 203
28.55, 212
28.56, 198
28.57, 236
28.58, 221
28.59, 201
28.6, 190
28.61, 188
28.62, 198
28.63, 203
28.64, 197
28.65, 229
28.66, 195
28.67, 222
28.68, 198
28.69, 198
28.7, 226
28.71, 202
28.72, 198
28.73, 203
28.74, 218
28.75, 174
28.76, 216
28.77, 219
28.78, 230
28.79, 219
28.8, 193
28.81, 205
28.82, 219
28.83, 203
28.84, 183
28.85, 205
28.86, 209
28.87, 176
28.88, 211
28.89, 212
28.9, 201
28.91, 200
28.92, 194
28.93, 213
28.94, 213
28.95, 209
28.96, 202
28.97, 198
28.98, 188
28.99, 192
29, 193
29.01, 212
29.02, 187
29.03, 200
29.04, 215
29.05, 184
29.06, 195
29.07, 201
29.08, 216
29.09, 218
29.1, 217
29.11, 218
29.12, 210
29.13, 198
29.14, 193
29.15, 201
29.16, 204
29.17, 215
29.18, 197
29.19, 183
29.2, 180
29.21, 210
29.22, 209
29.23, 223
29.24, 221
29.25, 181
29.26, 211
29.27, 184
29.28, 208
29.29, 227
29.3, 228
29.31, 189
29.32, 201
29.33, 205
29.34, 204
29.35, 231
29.36, 199
29.37, 198
29.38, 192
29.39, 220
29.4, 221
29.41, 195
29.42, 211
29.43, 211
29.44, 219
29.45, 197
29.46, 197
29.47, 237
29.48, 222
29.49, 213
29.5, 213
29.51, 210
29.52, 194
29.53, 220
29.54, 207
29.55, 206
29.56, 210
29.57, 203
29.58, 196
29.59, 214
29.6, 191
29.61, 210
29.62, 214
29.63, 215
29.64, 216
29.65, 199
29.66, 218
29.67, 203
29.68, 211
29.69, 236
29.7, 189
29.71, 200
29.72, 213
29.73, 196
29.74, 218
29.75, 199
29.76, 181
29.77, 185
29.78, 208
29.79, 214
29.8, 197
29.81, 200
29.82, 193
29.83, 215
29.84, 216
29.85, 218
29.86, 224
29.87, 211
29.88, 196
29.89, 214
29.9, 205
29.91, 212
29.92, 219
29.93, 168
29.94, 198
29.95, 236
29.96, 191
29.97, 213
29.98, 209
29.99, 232
30, 198
30.01, 222
30.02, 216
30.03, 201
30.04, 182
30.05, 196
30.06, 194
30.07, 212
30.08, 232
30.09, 208
30.1, 196
30.11, 214
30.12, 194
30.13, 220
30.14, 188
30.15, 207
30.16, 205
30.17, 206
30.18, 191
30.19, 226
30.2, 183
30.21, 192
30.22, 204
30.23, 213
30.24, 215
30.25, 215
30.26, 189
30.27, 207
30.28, 187
30.29, 197
30.3, 218
30.31, 220
30.32, 205
30.33, 193
30.34, 211
30.35, 209
30.36, 198
30.37, 203
30.38, 211
30.39, 208
30.4, 201
30.41, 233
30.42, 213
30.43, 224
30.44, 209
30.45, 226
30.46, 193
30.47, 214
30.48, 184
30.49, 207
30.5, 211
30.51, 216
30.52, 210
30.53, 205
30.54, 213
30.55, 195
30.56, 206
30.57, 223
30.58, 219
30.59, 218
30.6, 214
30.61, 209
30.62, 202
30.63, 200
30.64, 202
30.65, 225
30.66, 223
30.67, 191
30.68, 252
30.69, 210
30.7, 216
30.71, 242
30.72, 238
30.73, 197
30.74, 220
30.75, 194
30.76, 218
30.77, 208
30.78, 208
30.79, 201
30.8, 205
30.81, 258
30.82, 182
30.83, 189
30.84, 223
30.85, 194
30.86, 232
30.87, 218
30.88, 217
30.89, 237
30.9, 181
30.91, 217
30.92, 194
30.93, 202
30.94, 212
30.95, 206
30.96, 190
30.97, 205
30.98, 205
30.99, 192
31, 238
31.01, 218
31.02, 197
31.03, 210
31.04, 190
31.05, 224
31.06, 205
31.07, 204
31.08, 207
31.09, 215
31.1, 212
31.11, 224
31.12, 194
31.13, 208
31.14, 231
31.15, 203
31.16, 216
31.17, 234
31.18, 210
31.19, 191
31.2, 196
31.21, 176
31.22, 192
31.23, 205
31.24, 219
31.25, 200
31.26, 207
31.27, 199
31.28, 235
31.29, 205
31.3, 206
31.31, 204
31.32, 200
31.33, 201
31.34, 221
31.35, 195
31.36, 193
31.37, 199
31.38, 205
31.39, 206
31.4, 224
31.41, 216
31.42, 221
31.43, 227
31.44, 186
31.45, 217
31.46, 204
31.47, 210
31.48, 203
31.49, 213
31.5, 192
31.51, 202
31.52, 191
31.53, 215
31.54, 212
31.55, 217
31.56, 193
31.57, 205
31.58, 181
31.59, 220
31.6, 237
31.61, 220
31.62, 248
31.63, 185
31.64, 204
31.65, 220
31.66, 200
31.67, 213
31.68, 209
31.69, 211
31.7, 228
31.71, 202
31.72, 228
31.73, 219
31.74, 182
31.75, 197
31.76, 220
31.77, 214
31.78, 217
31.79, 204
31.8, 219
31.81, 209
31.82, 203
31.83, 190
31.84, 196
31.85, 196
31.86, 189
31.87, 195
31.88, 210
31.89, 234
31.9, 212
31.91, 235
31.92, 227
31.93, 224
31.94, 214
31.95, 211
31.96, 217
31.97, 228
31.98, 214
31.99, 216
32, 222
32.01, 225
32.02, 204
32.03, 202
32.04, 221
32.05, 216
32.06, 194
32.07, 231
32.08, 217
32.09, 208
32.1, 214
32.11, 234
32.12, 215
32.13, 213
32.14, 200
32.15, 235
32.16, 215
32.17, 201
32.18, 227
32.19, 200
32.2, 218
32.21, 192
32.22, 208
32.23, 214
32.24, 245
32.25, 191
32.26, 195
32.27, 204
32.28, 203
32.29, 226
32.3, 198
32.31, 208
32.32, 210
32.33, 203
32.34, 258
32.35, 223
32.36, 218
32.37, 206
32.38, 232
32.39, 207
32.4, 191
32.41, 234
32.42, 214
32.43, 237
32.44, 211
32.45, 222
32.46, 212
32.47, 198
32.48, 194
32.49, 230
32.5, 227
32.51, 225
32.52, 216
32.53, 208
32.54, 208
32.55, 222
32.56, 216
32.57, 206
32.58, 226
32.59, 238
32.6, 206
32.61, 197
32.62, 207
32.63, 222
32.64, 213
32.65, 223
32.66, 199
32.67, 237
32.68, 195
32.69, 193
32.7, 240
32.71, 195
32.72, 209
32.73, 191
32.74, 228
32.75, 229
32.76, 228
32.77, 244
32.78, 217
32.79, 204
32.8, 191
32.81, 203
32.82, 212
32.83, 212
32.84, 208
32.85, 220
32.86, 218
32.87, 229
32.88, 194
32.89, 246
32.9, 192
32.91, 221
32.92, 242
32.93, 204
32.94, 233
32.95, 250
32.96, 220
32.97, 230
32.98, 238
32.99, 249
33, 246
33.01, 240
33.02, 233
33.03, 260
33.04, 242
33.05, 277
33.06, 266
33.07, 274
33.08, 244
33.09, 268
33.1, 287
33.11, 290
33.12, 306
33.13, 328
33.14, 302
33.15, 332
33.16, 359
33.17, 391
33.18, 412
33.19, 409
33.2, 430
33.21, 435
33.22, 380
33.23, 428
33.24, 393
33.25, 361
33.26, 375
33.27, 404
33.28, 389
33.29, 352
33.3, 353
33.31, 354
33.32, 333
33.33, 292
33.34, 278
33.35, 277
33.36, 297
33.37, 297
33.38, 254
33.39, 263
33.4, 251
33.41, 254
33.42, 253
33.43, 248
33.44, 231
33.45, 227
33.46, 216
33.47, 218
33.48, 226
33.49, 233
33.5, 248
33.51, 229
33.52, 229
33.53, 226
33.54, 229
33.55, 225
33.56, 248
33.57, 231
33.58, 233
33.59, 204
33.6, 211
33.61, 234
33.62, 227
33.63, 223
33.64, 219
33.65, 225
33.66, 198
33.67, 207
33.68, 217
33.69, 216
33.7, 223
33.71, 219
33.72, 220
33.73, 188
33.74, 199
33.75, 226
33.76, 251
33.77, 195
33.78, 215
33.79, 223
33.8, 221
33.81, 214
33.82, 191
33.83, 226
33.84, 222
33.85, 228
33.86, 216
33.87, 229
33.88, 190
33.89, 224
33.9, 242
33.91, 234
33.92, 220
33.93, 207
33.94, 224
33.95, 207
33.96, 216
33.97, 215
33.98, 188
33.99, 234
34, 246
34.01, 212
34.02, 216
34.03, 221
34.04, 218
34.05, 224
34.06, 233
34.07, 187
34.08, 194
34.09, 227
34.1, 209
34.11, 198
34.12, 241
34.13, 202
34.14, 230
34.15, 217
34.16, 203
34.17, 207
34.18, 239
34.19, 233
34.2, 192
34.21, 221
34.22, 207
34.23, 184
34.24, 214
34.25, 215
34.26, 209
34.27, 225
34.28, 213
34.29, 201
34.3, 227
34.31, 211
34.32, 222
34.33, 222
34.34, 169
34.35, 215
34.36, 186
34.37, 243
34.38, 219
34.39, 234
34.4, 239
34.41, 204
34.42, 196
34.43, 181
34.44, 219
34.45, 227
34.46, 224
34.47, 200
34.48, 214
34.49, 208
34.5, 186
34.51, 242
34.52, 220
34.53, 204
34.54, 204
34.55, 257
34.56, 210
34.57, 198
34.58, 228
34.59, 224
34.6, 214
34.61, 218
34.62, 203
34.63, 213
34.64, 204
34.65, 227
34.66, 234
34.67, 201
34.68, 208
34.69, 205
34.7, 210
34.71, 237
34.72, 201
34.73, 242
34.74, 243
34.75, 220
34.76, 233
34.77, 224
34.78, 200
34.79, 237
34.8, 210
34.81, 210
34.82, 231
34.83, 203
34.84, 208
34.85, 185
34.86, 196
34.87, 216
34.88, 212
34.89, 169
34.9, 186
34.91, 195
34.92, 206
34.93, 235
34.94, 230
34.95, 214
34.96, 215
34.97, 198
34.98, 201
34.99, 232
35, 216
35.01, 216
35.02, 211
35.03, 227
35.04, 204
35.05, 235
35.06, 189
35.07, 219
35.08, 209
35.09, 239
35.1, 231
35.11, 223
35.12, 194
35.13, 199
35.14, 245
35.15, 201
35.16, 212
35.17, 211
35.18, 231
35.19, 180
35.2, 224
35.21, 204
35.22, 200
35.23, 229
35.24, 197
35.25, 206
35.26, 218
35.27, 244
35.28, 205
35.29, 224
35.3, 216
35.31, 216
35.32, 215
35.33, 209
35.34, 206
35.35, 196
35.36, 233
35.37, 234
35.38, 205
35.39, 243
35.4, 201
35.41, 258
35.42, 222
35.43, 212
35.44, 253
35.45, 206
35.46, 265
35.47, 224
35.48, 235
35.49, 203
35.5, 248
35.51, 243
35.52, 232
35.53, 244
35.54, 236
35.55, 226
35.56, 241
35.57, 263
35.58, 254
35.59, 244
35.6, 293
35.61, 279
35.62, 266
35.63, 297
35.64, 316
35.65, 331
35.66, 337
35.67, 307
35.68, 338
35.69, 331
35.7, 336
35.71, 301
35.72, 347
35.73, 306
35.74, 329
35.75, 306
35.76, 282
35.77, 305
35.78, 279
35.79, 292
35.8, 295
35.81, 251
35.82, 270
35.83, 283
35.84, 246
35.85, 233
35.86, 239
35.87, 230
35.88, 218
35.89, 247
35.9, 247
35.91, 218
35.92, 212
35.93, 226
35.94, 257
35.95, 208
35.96, 234
35.97, 217
35.98, 209
35.99, 221
36, 244
36.01, 222
36.02, 218
36.03, 220
36.04, 227
36.05, 221
36.06, 223
36.07, 234
36.08, 244
36.09, 206
36.1, 218
36.11, 223
36.12, 219
36.13, 216
36.14, 222
36.15, 216
36.16, 216
36.17, 221
36.18, 213
36.19, 224
36.2, 186
36.21, 232
36.22, 222
36.23, 230
36.24, 225
36.25, 213
36.26, 230
36.27, 215
36.28, 222
36.29, 192
36.3, 197
36.31, 214
36.32, 205
36.33, 209
36.34, 220
36.35, 219
36.36, 211
36.37, 197
36.38, 197
36.39, 209
36.4, 234
36.41, 231
36.42, 213
36.43, 218
36.44, 203
36.45, 193
36.46, 202
36.47, 194
36.48, 210
36.49, 212
36.5, 204
36.51, 217
36.52, 212
36.53, 222
36.54, 225
36.55, 231
36.56, 229
36.57, 213
36.58, 189
36.59, 194
36.6, 185
36.61, 233
36.62, 236
36.63, 208
36.64, 197
36.65, 249
36.66, 228
36.67, 216
36.68, 211
36.69, 215
36.7, 210
36.71, 232
36.72, 214
36.73, 215
36.74, 204
36.75, 221
36.76, 207
36.77, 233
36.78, 226
36.79, 203
36.8, 207
36.81, 196
36.82, 188
36.83, 218
36.84, 213
36.85, 223
36.86, 228
36.87, 206
36.88, 206
36.89, 216
36.9, 218
36.91, 238
36.92, 208
36.93, 217
36.94, 209
36.95, 178
36.96, 201
36.97, 218
36.98, 195
36.99, 207
37, 226
37.01, 239
37.02, 210
37.03, 234
37.04, 210
37.05, 226
37.06, 239
37.07, 193
37.08, 174
37.09, 200
37.1, 216
37.11, 228
37.12, 214
37.13, 230
37.14, 220
37.15, 211
37.16, 219
37.17, 209
37.18, 195
37.19, 223
37.2, 187
37.21, 230
37.22, 218
37.23, 199
37.24, 219
37.25, 192
37.26, 207
37.27, 237
37.28, 229
37.29, 226
37.3, 215
37.31, 210
37.32, 203
37.33, 236
37.34, 207
37.35, 210
37.36, 223
37.37, 197
37.38, 181
37.39, 200
37.4, 215
37.41, 196
37.42, 222
37.43, 208
37.44, 206
37.45, 228
37.46, 218
37.47, 217
37.48, 185
37.49, 219
37.5, 195
37.51, 194
37.52, 233
37.53, 203
37.54, 214
37.55, 210
37.56, 215
37.57, 230
37.58, 177
37.59, 201
37.6, 223
37.61, 227
37.62, 200
37.63, 217
37.64, 214
37.65, 236
37.66, 213
37.67, 192
37.68, 240
37.69, 205
37.7, 223
37.71, 202
37.72, 225
37.73, 220
37.74, 210
37.75, 215
37.76, 209
37.77, 211
37.78, 217
37.79, 197
37.8, 224
37.81, 217
37.82, 196
37.83, 174
37.84, 226
37.85, 215
37.86, 213
37.87, 232
37.88, 253
37.89, 214
37.9, 213
37.91, 211
37.92, 210
37.93, 230
37.94, 216
37.95, 217
37.96, 219
37.97, 206
37.98, 211
37.99, 215
38, 196
38.01, 209
38.02, 190
38.03, 210
38.04, 242
38.05, 191
38.06, 239
38.07, 189
38.08, 209
38.09, 194
38.1, 200
38.11, 201
38.12, 212
38.13, 214
38.14, 199
38.15, 203
38.16, 217
38.17, 238
38.18, 221
38.19, 225
38.2, 209
38.21, 197
38.22, 204
38.23, 233
38.24, 212
38.25, 201
38.26, 197
38.27, 235
38.28, 238
38.29, 213
38.3, 190
38.31, 233
38.32, 242
38.33, 214
38.34, 186
38.35, 200
38.36, 204
38.37, 200
38.38, 223
38.39, 218
38.4, 209
38.41, 198
38.42, 193
38.43, 187
38.44, 236
38.45, 212
38.46, 208
38.47, 227
38.48, 203
38.49, 196
38.5, 185
38.51, 203
38.52, 210
38.53, 226
38.54, 202
38.55, 221
38.56, 218
38.57, 200
38.58, 211
38.59, 188
38.6, 216
38.61, 221
38.62, 220
38.63, 232
38.64, 226
38.65, 216
38.66, 229
38.67, 233
38.68, 218
38.69, 208
38.7, 224
38.71, 214
38.72, 227
38.73, 201
38.74, 207
38.75, 236
38.76, 209
38.77, 210
38.78, 211
38.79, 204
38.8, 216
38.81, 225
38.82, 213
38.83, 220
38.84, 207
38.85, 196
38.86, 229
38.87, 233
38.88, 211
38.89, 227
38.9, 201
38.91, 225
38.92, 209
38.93, 203
38.94, 178
38.95, 193
38.96, 217
38.97, 209
38.98, 221
38.99, 196
39, 211
39.01, 231
39.02, 195
39.03, 213
39.04, 225
39.05, 228
39.06, 230
39.07, 215
39.08, 218
39.09, 228
39.1, 201
39.11, 204
39.12, 218
39.13, 222
39.14, 202
39.15, 228
39.16, 232
39.17, 213
39.18, 221
39.19, 229
39.2, 199
39.21, 221
39.22, 224
39.23, 203
39.24, 200
39.25, 222
39.26, 224
39.27, 217
39.28, 222
39.29, 216
39.3, 225
39.31, 218
39.32, 241
39.33, 190
39.34, 258
39.35, 237
39.36, 218
39.37, 224
39.38, 203
39.39, 218
39.4, 211
39.41, 209
39.42, 193
39.43, 212
39.44, 212
39.45, 220
39.46, 233
39.47, 207
39.48, 221
39.49, 230
39.5, 223
39.51, 227
39.52, 241
39.53, 234
39.54, 199
39.55, 234
39.56, 216
39.57, 205
39.58, 191
39.59, 205
39.6, 200
39.61, 239
39.62, 241
39.63, 232
39.64, 222
39.65, 223
39.66, 195
39.67, 209
39.68, 231
39.69, 233
39.7, 218
39.71, 234
39.72, 196
39.73, 227
39.74, 216
39.75, 236
39.76, 206
39.77, 220
39.78, 204
39.79, 223
39.8, 203
39.81, 206
39.82, 212
39.83, 226
39.84, 200
39.85, 227
39.86, 209
39.87, 209
39.88, 204
39.89, 227
39.9, 221
39.91, 216
39.92, 193
39.93, 204
39.94, 201
39.95, 212
39.96, 215
39.97, 214
39.98, 212
39.99, 219
40, 225
40.01, 210
40.02, 192
40.03, 216
40.04, 207
40.05, 227
40.06, 214
40.07, 221
40.08, 213
40.09, 234
40.1, 226
40.11, 236
40.12, 217
40.13, 210
40.14, 204
40.15, 221
40.16, 220
40.17, 231
40.18, 211
40.19, 214
40.2, 188
40.21, 217
40.22, 216
40.23, 216
40.24, 217
40.25, 213
40.26, 232
40.27, 211
40.28, 212
40.29, 185
40.3, 185
40.31, 213
40.32, 222
40.33, 235
40.34, 258
40.35, 225
40.36, 229
40.37, 221
40.38, 210
40.39, 219
40.4, 195
40.41, 218
40.42, 167
40.43, 211
40.44, 243
40.45, 201
40.46, 252
40.47, 236
40.48, 238
40.49, 226
40.5, 202
40.51, 224
40.52, 228
40.53, 179
40.54, 216
40.55, 221
40.56, 213
40.57, 214
40.58, 213
40.59, 227
40.6, 219
40.61, 206
40.62, 228
40.63, 202
40.64, 218
40.65, 235
40.66, 203
40.67, 222
40.68, 229
40.69, 194
40.7, 212
40.71, 226
40.72, 217
40.73, 225
40.74, 254
40.75, 223
40.76, 211
40.77, 252
40.78, 243
40.79, 201
40.8, 246
40.81, 260
40.82, 233
40.83, 231
40.84, 238
40.85, 249
40.86, 228
40.87, 235
40.88, 230
40.89, 233
40.9, 253
40.91, 303
40.92, 259
40.93, 255
40.94, 248
40.95, 265
40.96, 240
40.97, 243
40.98, 266
40.99, 249
41, 266
41.01, 260
41.02, 247
41.03, 250
41.04, 256
41.05, 247
41.06, 249
41.07, 250
41.08, 233
41.09, 246
41.1, 246
41.11, 200
41.12, 234
41.13, 229
41.14, 236
41.15, 212
41.16, 212
41.17, 231
41.18, 219
41.19, 226
41.2, 208
41.21, 226
41.22, 203
41.23, 204
41.24, 225
41.25, 204
41.26, 223
41.27, 250
41.28, 203
41.29, 249
41.3, 236
41.31, 219
41.32, 203
41.33, 219
41.34, 207
41.35, 203
41.36, 233
41.37, 222
41.38, 238
41.39, 193
41.4, 229
41.41, 213
41.42, 242
41.43, 228
41.44, 206
41.45, 190
41.46, 202
41.47, 213
41.48, 200
41.49, 242
41.5, 235
41.51, 213
41.52, 219
41.53, 214
41.54, 221
41.55, 228
41.56, 196
41.57, 183
41.58, 227
41.59, 209
41.6, 188
41.61, 223
41.62, 230
41.63, 211
41.64, 225
41.65, 208
41.66, 222
41.67, 207
41.68, 224
41.69, 236
41.7, 194
41.71, 217
41.72, 217
41.73, 221
41.74, 226
41.75, 197
41.76, 232
41.77, 230
41.78, 218
41.79, 205
41.8, 214
41.81, 208
41.82, 202
41.83, 187
41.84, 212
41.85, 203
41.86, 179
41.87, 204
41.88, 234
41.89, 215
41.9, 194
41.91, 227
41.92, 203
41.93, 203
41.94, 207
41.95, 210
41.96, 204
41.97, 216
41.98, 208
41.99, 195
42, 239
42.01, 237
42.02, 221
42.03, 217
42.04, 243
42.05, 221
42.06, 235
42.07, 194
42.08, 224
42.09, 209
42.1, 179
42.11, 187
42.12, 230
42.13, 243
42.14, 228
42.15, 191
42.16, 222
42.17, 207
42.18, 193
42.19, 222
42.2, 218
42.21, 207
42.22, 208
42.23, 225
42.24, 215
42.25, 197
42.26, 196
42.27, 196
42.28, 194
42.29, 224
42.3, 214
42.31, 228
42.32, 229
42.33, 218
42.34, 197
42.35, 223
42.36, 225
42.37, 199
42.38, 239
42.39, 226
42.4, 187
42.41, 228
42.42, 191
42.43, 238
42.44, 204
42.45, 213
42.46, 235
42.47, 239
42.48, 213
42.49, 211
42.5, 215
42.51, 200
42.52, 208
42.53, 220
42.54, 230
42.55, 217
42.56, 216
42.57, 216
42.58, 213
42.59, 215
42.6, 240
42.61, 233
42.62, 219
42.63, 219
42.64, 234
42.65, 245
42.66, 201
42.67, 242
42.68, 237
42.69, 211
42.7, 222
42.71, 201
42.72, 220
42.73, 202
42.74, 251
42.75, 217
42.76, 217
42.77, 217
42.78, 218
42.79, 247
42.8, 209
42.81, 202
42.82, 220
42.83, 210
42.84, 220
42.85, 221
42.86, 228
42.87, 191
42.88, 202
42.89, 229
42.9, 228
42.91, 213
42.92, 210
42.93, 217
42.94, 215
42.95, 238
42.96, 233
42.97, 218
42.98, 219
42.99, 217
43, 220
43.01, 208
43.02, 208
43.03, 218
43.04, 186
43.05, 227
43.06, 222
43.07, 223
43.08, 202
43.09, 210
43.1, 239
43.11, 218
43.12, 230
43.13, 211
43.14, 197
43.15, 239
43.16, 220
43.17, 213
43.18, 225
43.19, 235
43.2, 234
43.21, 218
43.22, 210
43.23, 217
43.24, 246
43.25, 180
43.26, 195
43.27, 247
43.28, 221
43.29, 213
43.3, 226
43.31, 211
43.32, 197
43.33, 195
43.34, 201
43.35, 238
43.36, 196
43.37, 198
43.38, 243
43.39, 224
43.4, 230
43.41, 246
43.42, 218
43.43, 230
43.44, 236
43.45, 207
43.46, 208
43.47, 202
43.48, 218
43.49, 215
43.5, 225
43.51, 237
43.52, 242
43.53, 244
43.54, 215
43.55, 210
43.56, 229
43.57, 209
43.58, 229
43.59, 223
43.6, 218
43.61, 233
43.62, 236
43.63, 199
43.64, 210
43.65, 228
43.66, 228
43.67, 226
43.68, 201
43.69, 206
43.7, 204
43.71, 232
43.72, 227
43.73, 230
43.74, 220
43.75, 226
43.76, 213
43.77, 243
43.78, 225
43.79, 209
43.8, 205
43.81, 218
43.82, 207
43.83, 220
43.84, 224
43.85, 193
43.86, 234
43.87, 234
43.88, 232
43.89, 232
43.9, 196
43.91, 230
43.92, 208
43.93, 240
43.94, 217
43.95, 213
43.96, 204
43.97, 210
43.98, 223
43.99, 208
44, 236
44.01, 225
44.02, 247
44.03, 221
44.04, 246
44.05, 231
44.06, 204
44.07, 210
44.08, 217
44.09, 218
44.1, 237
44.11, 233
44.12, 238
44.13, 214
44.14, 221
44.15, 229
44.16, 223
44.17, 213
44.18, 223
44.19, 210
44.2, 207
44.21, 234
44.22, 186
44.23, 220
44.24, 201
44.25, 244
44.26, 227
44.27, 211
44.28, 214
44.29, 223
44.3, 208
44.31, 219
44.32, 262
44.33, 201
44.34, 218
44.35, 236
44.36, 248
44.37, 224
44.38, 218
44.39, 228
44.4, 250
44.41, 211
44.42, 214
44.43, 214
44.44, 206
44.45, 233
44.46, 223
44.47, 194
44.48, 217
44.49, 224
44.5, 212
44.51, 195
44.52, 222
44.53, 199
44.54, 252
44.55, 223
44.56, 209
44.57, 234
44.58, 251
44.59, 241
44.6, 214
44.61, 213
44.62, 232
44.63, 196
44.64, 216
44.65, 210
44.66, 221
44.67, 215
44.68, 226
44.69, 215
44.7, 226
44.71, 208
44.72, 225
44.73, 215
44.74, 232
44.75, 225
44.76, 226
44.77, 223
44.78, 221
44.79, 221
44.8, 228
44.81, 210
44.82, 233
44.83, 207
44.84, 220
44.85, 206
44.86, 199
44.87, 228
44.88, 215
44.89, 208
44.9, 234
44.91, 235
44.92, 245
44.93, 235
44.94, 201
44.95, 226
44.96, 219
44.97, 221
44.98, 221
44.99, 232
45, 195
45.01, 218
45.02, 249
45.03, 220
45.04, 257
45.05, 210
45.06, 193
45.07, 228
45.08, 211
45.09, 232
45.1, 226
45.11, 222
45.12, 206
45.13, 197
45.14, 233
45.15, 224
45.16, 228
45.17, 214
45.18, 216
45.19, 242
45.2, 247
45.21, 227
45.22, 223
45.23, 227
45.24, 226
45.25, 225
45.26, 215
45.27, 220
45.28, 195
45.29, 245
45.3, 240
45.31, 209
45.32, 187
45.33, 230
45.34, 244
45.35, 217
45.36, 232
45.37, 218
45.38, 212
45.39, 219
45.4, 216
45.41, 204
45.42, 216
45.43, 212
45.44, 234
45.45, 222
45.46, 217
45.47, 201
45.48, 228
45.49, 240
45.5, 209
45.51, 207
45.52, 230
45.53, 237
45.54, 211
45.55, 217
45.56, 215
45.57, 246
45.58, 217
45.59, 216
45.6, 212
45.61, 212
45.62, 248
45.63, 233
45.64, 235
45.65, 238
45.66, 208
45.67, 204
45.68, 254
45.69, 216
45.7, 237
45.71, 213
45.72, 202
45.73, 213
45.74, 230
45.75, 218
45.76, 252
45.77, 214
45.78, 240
45.79, 191
45.8, 205
45.81, 263
45.82, 231
45.83, 226
45.84, 205
45.85, 218
45.86, 226
45.87, 226
45.88, 229
45.89, 221
45.9, 224
45.91, 210
45.92, 230
45.93, 206
45.94, 214
45.95, 238
45.96, 208
45.97, 200
45.98, 244
45.99, 223
46, 229
46.01, 243
46.02, 253
46.03, 216
46.04, 223
46.05, 223
46.06, 224
46.07, 209
46.08, 232
46.09, 231
46.1, 213
46.11, 226
46.12, 246
46.13, 203
46.14, 225
46.15, 224
46.16, 246
46.17, 223
46.18, 209
46.19, 209
46.2, 229
46.21, 203
46.22, 219
46.23, 194
46.24, 211
46.25, 179
46.26, 220
46.27, 243
46.28, 217
46.29, 220
46.3, 221
46.31, 201
46.32, 217
46.33, 241
46.34, 212
46.35, 247
46.36, 200
46.37, 230
46.38, 216
46.39, 220
46.4, 253
46.41, 228
46.42, 220
46.43, 238
46.44, 205
46.45, 222
46.46, 233
46.47, 215
46.48, 220
46.49, 224
46.5, 233
46.51, 226
46.52, 189
46.53, 224
46.54, 219
46.55, 226
46.56, 221
46.57, 212
46.58, 206
46.59, 225
46.6, 245
46.61, 246
46.62, 189
46.63, 213
46.64, 222
46.65, 231
46.66, 209
46.67, 226
46.68, 224
46.69, 215
46.7, 216
46.71, 223
46.72, 229
46.73, 240
46.74, 207
46.75, 238
46.76, 217
46.77, 215
46.78, 240
46.79, 210
46.8, 201
46.81, 215
46.82, 218
46.83, 240
46.84, 239
46.85, 242
46.86, 208
46.87, 210
46.88, 215
46.89, 217
46.9, 237
46.91, 216
46.92, 221
46.93, 222
46.94, 227
46.95, 214
46.96, 200
46.97, 224
46.98, 208
46.99, 232
47, 210
47.01, 243
47.02, 217
47.03, 203
47.04, 207
47.05, 225
47.06, 249
47.07, 216
47.08, 210
47.09, 214
47.1, 225
47.11, 227
47.12, 225
47.13, 222
47.14, 224
47.15, 206
47.16, 221
47.17, 201
47.18, 216
47.19, 211
47.2, 222
47.21, 221
47.22, 207
47.23, 223
47.24, 228
47.25, 231
47.26, 239
47.27, 222
47.28, 226
47.29, 234
47.3, 198
47.31, 211
47.32, 205
47.33, 219
47.34, 209
47.35, 193
47.36, 231
47.37, 179
47.38, 222
47.39, 231
47.4, 226
47.41, 204
47.42, 229
47.43, 210
47.44, 219
47.45, 212
47.46, 225
47.47, 212
47.48, 217
47.49, 244
47.5, 231
47.51, 221
47.52, 222
47.53, 218
47.54, 218
47.55, 236
47.56, 220
47.57, 256
47.58, 225
47.59, 222
47.6, 229
47.61, 195
47.62, 213
47.63, 211
47.64, 205
47.65, 214
47.66, 201
47.67, 210
47.68, 224
47.69, 212
47.7, 216
47.71, 214
47.72, 235
47.73, 217
47.74, 227
47.75, 221
47.76, 245
47.77, 218
47.78, 227
47.79, 227
47.8, 221
47.81, 230
47.82, 211
47.83, 212
47.84, 217
47.85, 241
47.86, 235
47.87, 226
47.88, 227
47.89, 212
47.9, 227
47.91, 221
47.92, 238
47.93, 245
47.94, 200
47.95, 216
47.96, 218
47.97, 211
47.98, 218
47.99, 215
48, 226
48.01, 206
48.02, 203
48.03, 198
48.04, 228
48.05, 205
48.06, 208
48.07, 199
48.08, 203
48.09, 202
48.1, 247
48.11, 226
48.12, 221
48.13, 205
48.14, 213
48.15, 218
48.16, 241
48.17, 224
48.18, 228
48.19, 209
48.2, 229
48.21, 199
48.22, 221
48.23, 223
48.24, 218
48.25, 224
48.26, 227
48.27, 222
48.28, 215
48.29, 230
48.3, 202
48.31, 208
48.32, 243
48.33, 244
48.34, 218
48.35, 244
48.36, 223
48.37, 265
48.38, 230
48.39, 236
48.4, 199
48.41, 220
48.42, 214
48.43, 229
48.44, 227
48.45, 240
48.46, 225
48.47, 209
48.48, 233
48.49, 216
48.5, 250
48.51, 208
48.52, 208
48.53, 227
48.54, 223
48.55, 208
48.56, 223
48.57, 236
48.58, 223
48.59, 201
48.6, 218
48.61, 209
48.62, 219
48.63, 196
48.64, 201
48.65, 219
48.66, 237
48.67, 233
48.68, 237
48.69, 202
48.7, 202
48.71, 225
48.72, 241
48.73, 205
48.74, 232
48.75, 239
48.76, 221
48.77, 216
48.78, 226
48.79, 223
48.8, 235
48.81, 208
48.82, 235
48.83, 231
48.84, 228
48.85, 219
48.86, 219
48.87, 230
48.88, 215
48.89, 234
48.9, 226
48.91, 228
48.92, 207
48.93, 233
48.94, 214
48.95, 231
48.96, 236
48.97, 221
48.98, 221
48.99, 218
49, 222
49.01, 205
49.02, 224
49.03, 226
49.04, 225
49.05, 233
49.06, 235
49.07, 209
49.08, 237
49.09, 231
49.1, 204
49.11, 210
49.12, 235
49.13, 220
49.14, 213
49.15, 225
49.16, 239
49.17, 245
49.18, 224
49.19, 246
49.2, 196
49.21, 235
49.22, 235
49.23, 199
49.24, 241
49.25, 218
49.26, 203
49.27, 222
49.28, 247
49.29, 261
49.3, 220
49.31, 240
49.32, 228
49.33, 230
49.34, 260
49.35, 246
49.36, 234
49.37, 247
49.38, 256
49.39, 236
49.4, 239
49.41, 239
49.42, 260
49.43, 253
49.44, 241
49.45, 255
49.46, 262
49.47, 286
49.48, 316
49.49, 261
49.5, 252
49.51, 255
49.52, 273
49.53, 248
49.54, 270
49.55, 248
49.56, 232
49.57, 283
49.58, 262
49.59, 273
49.6, 259
49.61, 236
49.62, 276
49.63, 277
49.64, 252
49.65, 258
49.66, 258
49.67, 253
49.68, 260
49.69, 271
49.7, 247
49.71, 269
49.72, 247
49.73, 257
49.74, 256
49.75, 234
49.76, 254
49.77, 244
49.78, 240
49.79, 251
49.8, 207
49.81, 250
49.82, 248
49.83, 240
49.84, 243
49.85, 238
49.86, 221
49.87, 257
49.88, 222
49.89, 241
49.9, 231
49.91, 234
49.92, 233
49.93, 235
49.94, 211
49.95, 236
49.96, 227
49.97, 208
49.98, 250
49.99, 238
50, 209
50.01, 250
50.02, 214
50.03, 247
50.04, 222
50.05, 231
50.06, 206
50.07, 215
50.08, 221
50.09, 213
50.1, 241
50.11, 217
50.12, 226
50.13, 191
50.14, 208
50.15, 253
50.16, 236
50.17, 195
50.18, 235
50.19, 211
50.2, 215
50.21, 226
50.22, 255
50.23, 217
50.24, 222
50.25, 218
50.26, 219
50.27, 233
50.28, 220
50.29, 205
50.3, 244
50.31, 214
50.32, 221
50.33, 242
50.34, 206
50.35, 253
50.36, 219
50.37, 228
50.38, 235
50.39, 215
50.4, 233
50.41, 225
50.42, 220
50.43, 256
50.44, 212
50.45, 205
50.46, 227
50.47, 211
50.48, 226
50.49, 226
50.5, 213
50.51, 208
50.52, 248
50.53, 216
50.54, 222
50.55, 221
50.56, 227
50.57, 227
50.58, 222
50.59, 224
50.6, 234
50.61, 196
50.62, 237
50.63, 200
50.64, 236
50.65, 231
50.66, 216
50.67, 218
50.68, 217
50.69, 218
50.7, 202
50.71, 208
50.72, 233
50.73, 251
50.74, 243
50.75, 226
50.76, 213
50.77, 225
50.78, 256
50.79, 237
50.8, 232
50.81, 202
50.82, 214
50.83, 220
50.84, 229
50.85, 222
50.86, 217
50.87, 222
50.88, 205
50.89, 222
50.9, 212
50.91, 222
50.92, 225
50.93, 239
50.94, 198
50.95, 225
50.96, 228
50.97, 221
50.98, 269
50.99, 238
51, 237
51.01, 217
51.02, 239
51.03, 228
51.04, 232
51.05, 204
51.06, 222
51.07, 222
51.08, 185
51.09, 220
51.1, 220
51.11, 213
51.12, 220
51.13, 213
51.14, 206
51.15, 210
51.16, 221
51.17, 209
51.18, 215
51.19, 209
51.2, 199
51.21, 208
51.22, 219
51.23, 219
51.24, 213
51.25, 236
51.26, 234
51.27, 233
51.28, 221
51.29, 226
51.3, 211
51.31, 205
51.32, 192
51.33, 201
51.34, 213
51.35, 232
51.36, 235
51.37, 224
51.38, 225
51.39, 222
51.4, 216
51.41, 218
51.42, 216
51.43, 233
51.44, 256
51.45, 213
51.46, 213
51.47, 200
51.48, 225
51.49, 204
51.5, 215
51.51, 229
51.52, 186
51.53, 231
51.54, 210
51.55, 221
51.56, 226
51.57, 211
51.58, 218
51.59, 206
51.6, 238
51.61, 220
51.62, 209
51.63, 203
51.64, 218
51.65, 241
51.66, 207
51.67, 236
51.68, 226
51.69, 201
51.7, 239
51.71, 212
51.72, 242
51.73, 206
51.74, 212
51.75, 213
51.76, 231
51.77, 219
51.78, 209
51.79, 206
51.8, 197
51.81, 240
51.82, 198
51.83, 236
51.84, 208
51.85, 247
51.86, 243
51.87, 227
51.88, 207
51.89, 230
51.9, 199
51.91, 242
51.92, 209
51.93, 216
51.94, 233
51.95, 216
51.96, 243
51.97, 234
51.98, 209
51.99, 219
52, 219
52.01, 219
52.02, 216
52.03, 227
52.04, 242
52.05, 229
52.06, 220
52.07, 194
52.08, 216
52.09, 220
52.1, 228
52.11, 212
52.12, 237
52.13, 238
52.14, 221
52.15, 220
52.16, 243
52.17, 214
52.18, 207
52.19, 220
52.2, 207
52.21, 252
52.22, 223
52.23, 227
52.24, 231
52.25, 229
52.26, 209
52.27, 212
52.28, 214
52.29, 222
52.3, 233
52.31, 231
52.32, 225
52.33, 238
52.34, 189
52.35, 227
52.36, 251
52.37, 210
52.38, 209
52.39, 248
52.4, 217
52.41, 232
52.42, 223
52.43, 216
52.44, 236
52.45, 210
52.46, 235
52.47, 241
52.48, 199
52.49, 224
52.5, 208
52.51, 200
52.52, 204
52.53, 246
52.54, 254
52.55, 237
52.56, 211
52.57, 218
52.58, 223
52.59, 193
52.6, 242
52.61, 264
52.62, 209
52.63, 218
52.64, 238
52.65, 207
52.66, 200
52.67, 207
52.68, 218
52.69, 206
52.7, 228
52.71, 217
52.72, 213
52.73, 232
52.74, 234
52.75, 224
52.76, 208
52.77, 222
52.78, 243
52.79, 228
52.8, 216
52.81, 242
52.82, 219
52.83, 230
52.84, 206
52.85, 235
52.86, 216
52.87, 219
52.88, 221
52.89, 203
52.9, 180
52.91, 211
52.92, 238
52.93, 217
52.94, 210
52.95, 217
52.96, 231
52.97, 228
52.98, 243
52.99, 212
53, 236
53.01, 205
53.02, 241
53.03, 230
53.04, 229
53.05, 229
53.06, 217
53.07, 243
53.08, 253
53.09, 210
53.1, 202
53.11, 229
53.12, 239
53.13, 231
53.14, 220
53.15, 213
53.16, 222
53.17, 224
53.18, 207
53.19, 218
53.2, 255
53.21, 225
53.22, 203
53.23, 235
53.24, 219
53.25, 233
53.26, 211
53.27, 211
53.28, 226
53.29, 232
53.3, 193
53.31, 221
53.32, 230
53.33, 210
53.34, 222
53.35, 232
53.36, 213
53.37, 222
53.38, 203
53.39, 233
53.4, 227
53.41, 216
53.42, 228
53.43, 243
53.44, 203
53.45, 230
53.46, 236
53.47, 253
53.48, 221
53.49, 243
53.5, 238
53.51, 230
53.52, 225
53.53, 208
53.54, 214
53.55, 216
53.56, 233
53.57, 199
53.58, 246
53.59, 231
53.6, 243
53.61, 240
53.62, 238
53.63, 215
53.64, 218
53.65, 217
53.66, 224
53.67, 240
53.68, 214
53.69, 250
53.7, 208
53.71, 219
53.72, 246
53.73, 234
53.74, 242
53.75, 223
53.76, 221
53.77, 199
53.78, 224
53.79, 236
53.8, 226
53.81, 246
53.82, 224
53.83, 253
53.84, 229
53.85, 231
53.86, 249
53.87, 233
53.88, 225
53.89, 236
53.9, 251
53.91, 262
53.92, 231
53.93, 236
53.94, 235
53.95, 224
53.96, 240
53.97, 221
53.98, 242
53.99, 249
54, 274
54.01, 247
54.02, 267
54.03, 270
54.04, 262
54.05, 247
54.06, 261
54.07, 288
54.08, 301
54.09, 286
54.1, 297
54.11, 294
54.12, 301
54.13, 293
54.14, 271
54.15, 266
54.16, 288
54.17, 296
54.18, 277
54.19, 284
54.2, 277
54.21, 278
54.22, 275
54.23, 274
54.24, 268
54.25, 273
54.26, 261
54.27, 256
54.28, 261
54.29, 271
54.3, 253
54.31, 234
54.32, 245
54.33, 263
54.34, 248
54.35, 220
54.36, 239
54.37, 246
54.38, 246
54.39, 236
54.4, 237
54.41, 239
54.42, 219
54.43, 268
54.44, 207
54.45, 230
54.46, 222
54.47, 210
54.48, 213
54.49, 219
54.5, 243
54.51, 261
54.52, 236
54.53, 213
54.54, 209
54.55, 244
54.56, 200
54.57, 246
54.58, 236
54.59, 207
54.6, 206
54.61, 237
54.62, 224
54.63, 255
54.64, 207
54.65, 235
54.66, 237
54.67, 228
54.68, 203
54.69, 208
54.7, 205
54.71, 216
54.72, 234
54.73, 208
54.74, 229
54.75, 236
54.76, 214
54.77, 230
54.78, 253
54.79, 217
54.8, 244
54.81, 220
54.82, 218
54.83, 238
54.84, 240
54.85, 228
54.86, 226
54.87, 242
54.88, 249
54.89, 239
54.9, 207
54.91, 235
54.92, 216
54.93, 212
54.94, 236
54.95, 253
54.96, 228
54.97, 204
54.98, 202
54.99, 220
55, 228
55.01, 242
55.02, 227
55.03, 246
55.04, 211
55.05, 234
55.06, 227
55.07, 245
55.08, 229
55.09, 233
55.1, 247
55.11, 234
55.12, 219
55.13, 227
55.14, 227
55.15, 232
55.16, 241
55.17, 212
55.18, 232
55.19, 225
55.2, 241
55.21, 240
55.22, 244
55.23, 232
55.24, 223
55.25, 247
55.26, 219
55.27, 221
55.28, 221
55.29, 243
55.3, 228
55.31, 228
55.32, 208
55.33, 229
55.34, 232
55.35, 215
55.36, 249
55.37, 250
55.38, 218
55.39, 228
55.4, 186
55.41, 202
55.42, 229
55.43, 228
55.44, 217
55.45, 193
55.46, 253
55.47, 232
55.48, 230
55.49, 210
55.5, 221
55.51, 209
55.52, 237
55.53, 195
55.54, 218
55.55, 220
55.56, 201
55.57, 219
55.58, 220
55.59, 226
55.6, 209
55.61, 223
55.62, 222
55.63, 224
55.64, 239
55.65, 218
55.66, 214
55.67, 240
55.68, 246
55.69, 218
55.7, 219
55.71, 234
55.72, 215
55.73, 208
55.74, 228
55.75, 217
55.76, 224
55.77, 208
55.78, 212
55.79, 238
55.8, 198
55.81, 219
55.82, 211
55.83, 230
55.84, 241
55.85, 220
55.86, 236
55.87, 236
55.88, 212
55.89, 223
55.9, 193
55.91, 242
55.92, 228
55.93, 192
55.94, 225
55.95, 204
55.96, 226
55.97, 227
55.98, 210
55.99, 248
56, 247
56.01, 230
56.02, 240
56.03, 215
56.04, 223
56.05, 234
56.06, 241
56.07, 235
56.08, 203
56.09, 243
56.1, 257
56.11, 246
56.12, 262
56.13, 241
56.14, 231
56.15, 228
56.16, 213
56.17, 204
56.18, 220
56.19, 198
56.2, 243
56.21, 221
56.22, 218
56.23, 221
56.24, 190
56.25, 217
56.26, 249
56.27, 211
56.28, 207
56.29, 235
56.3, 220
56.31, 223
56.32, 221
56.33, 206
56.34, 197
56.35, 220
56.36, 228
56.37, 247
56.38, 195
56.39, 234
56.4, 190
56.41, 249
56.42, 201
56.43, 233
56.44, 225
56.45, 222
56.46, 220
56.47, 201
56.48, 181
56.49, 232
56.5, 202
56.51, 243
56.52, 207
56.53, 257
56.54, 221
56.55, 218
56.56, 232
56.57, 219
56.58, 207
56.59, 227
56.6, 212
56.61, 217
56.62, 218
56.63, 221
56.64, 237
56.65, 226
56.66, 247
56.67, 233
56.68, 238
56.69, 240
56.7, 233
56.71, 204
56.72, 225
56.73, 216
56.74, 214
56.75, 203
56.76, 246
56.77, 213
56.78, 214
56.79, 213
56.8, 234
56.81, 239
56.82, 212
56.83, 241
56.84, 201
56.85, 234
56.86, 234
56.87, 246
56.88, 260
56.89, 213
56.9, 208
56.91, 216
56.92, 220
56.93, 230
56.94, 196
56.95, 194
56.96, 220
56.97, 224
56.98, 224
56.99, 236
57, 245
57.01, 215
57.02, 212
57.03, 219
57.04, 220
57.05, 235
57.06, 185
57.07, 195
57.08, 212
57.09, 226
57.1, 205
57.11, 234
57.12, 190
57.13, 220
57.14, 218
57.15, 222
57.16, 185
57.17, 205
57.18, 220
57.19, 213
57.2, 222
57.21, 200
57.22, 255
57.23, 225
57.24, 235
57.25, 223
57.26, 241
57.27, 204
57.28, 208
57.29, 228
57.3, 212
57.31, 231
57.32, 229
57.33, 229
57.34, 233
57.35, 231
57.36, 192
57.37, 242
57.38, 233
57.39, 240
57.4, 215
57.41, 244
57.42, 218
57.43, 231
57.44, 263
57.45, 243
57.46, 222
57.47, 236
57.48, 210
57.49, 225
57.5, 243
57.51, 241
57.52, 233
57.53, 236
57.54, 217
57.55, 205
57.56, 232
57.57, 243
57.58, 245
57.59, 248
57.6, 229
57.61, 210
57.62, 246
57.63, 232
57.64, 258
57.65, 227
57.66, 245
57.67, 228
57.68, 245
57.69, 197
57.7, 248
57.71, 228
57.72, 206
57.73, 231
57.74, 231
57.75, 247
57.76, 256
57.77, 230
57.78, 240
57.79, 246
57.8, 257
57.81, 246
57.82, 257
57.83, 203
57.84, 197
57.85, 241
57.86, 202
57.87, 232
57.88, 214
57.89, 221
57.9, 241
57.91, 209
57.92, 207
57.93, 223
57.94, 217
57.95, 197
57.96, 224
57.97, 217
57.98, 218
57.99, 219
58, 206
58.01, 227
58.02, 241
58.03, 216
58.04, 232
58.05, 222
58.06, 227
58.07, 210
58.08, 224
58.09, 211
58.1, 228
58.11, 234
58.12, 247
58.13, 212
58.14, 198
58.15, 217
58.16, 202
58.17, 223
58.18, 238
58.19, 228
58.2, 228
58.21, 224
58.22, 221
58.23, 203
58.24, 222
58.25, 236
58.26, 202
58.27, 207
58.28, 188
58.29, 204
58.3, 215
58.31, 222
58.32, 214
58.33, 205
58.34, 203
58.35, 196
58.36, 207
58.37, 214
58.38, 220
58.39, 232
58.4, 220
58.41, 196
58.42, 193
58.43, 247
58.44, 238
58.45, 242
58.46, 211
58.47, 244
58.48, 216
58.49, 230
58.5, 221
58.51, 241
58.52, 205
58.53, 219
58.54, 222
58.55, 213
58.56, 213
58.57, 195
58.58, 231
58.59, 255
58.6, 226
58.61, 224
58.62, 203
58.63, 216
58.64, 232
58.65, 238
58.66, 224
58.67, 238
58.68, 216
58.69, 231
58.7, 221
58.71, 234
58.72, 205
58.73, 223
58.74, 230
58.75, 223
58.76, 223
58.77, 227
58.78, 233
58.79, 219
58.8, 218
58.81, 221
58.82, 209
58.83, 212
58.84, 208
58.85, 232
58.86, 230
58.87, 231
58.88, 216
58.89, 243
58.9, 230
58.91, 230
58.92, 222
58.93, 209
58.94, 217
58.95, 214
58.96, 215
58.97, 210
58.98, 216
58.99, 220
59, 236
59.01, 209
59.02, 202
59.03, 218
59.04, 226
59.05, 217
59.06, 227
59.07, 223
59.08, 221
59.09, 224
59.1, 236
59.11, 230
59.12, 239
59.13, 213
59.14, 222
59.15, 228
59.16, 229
59.17, 209
59.18, 207
59.19, 242
59.2, 197
59.21, 186
59.22, 216
59.23, 246
59.24, 244
59.25, 246
59.26, 213
59.27, 254
59.28, 217
59.29, 224
59.3, 242
59.31, 228
59.32, 227
59.33, 225
59.34, 227
59.35, 229
59.36, 232
59.37, 232
59.38, 242
59.39, 199
59.4, 213
59.41, 203
59.42, 229
59.43, 229
59.44, 214
59.45, 228
59.46, 207
59.47, 223
59.48, 246
59.49, 201
59.5, 230
59.51, 248
59.52, 203
59.53, 231
59.54, 186
59.55, 216
59.56, 236
59.57, 236
59.58, 213
59.59, 216
59.6, 233
59.61, 195
59.62, 215
59.63, 248
59.64, 228
59.65, 223
59.66, 259
59.67, 248
59.68, 219
59.69, 218
59.7, 230
59.71, 229
59.72, 236
59.73, 213
59.74, 223
59.75, 203
59.76, 234
59.77, 199
59.78, 222
59.79, 212
59.8, 219
59.81, 225
59.82, 229
59.83, 215
59.84, 209
59.85, 207
59.86, 233
59.87, 247
59.88, 220
59.89, 242
59.9, 224
59.91, 217
59.92, 190
59.93, 202
59.94, 223
59.95, 203
59.96, 242
59.97, 249
59.98, 223
59.99, 213
60, 202
60.01, 225
60.02, 207
60.03, 211
60.04, 219
60.05, 249
60.06, 234
60.07, 229
60.08, 244
60.09, 233
60.1, 230
60.11, 229
60.12, 201
60.13, 200
60.14, 225
60.15, 196
60.16, 224
60.17, 207
60.18, 217
60.19, 234
60.2, 230
60.21, 229
60.22, 232
60.23, 203
60.24, 195
60.25, 215
60.26, 207
60.27, 196
60.28, 229
60.29, 226
60.3, 206
60.31, 199
60.32, 234
60.33, 188
60.34, 243
60.35, 226
60.36, 230
60.37, 213
60.38, 217
60.39, 231
60.4, 196
60.41, 210
60.42, 203
60.43, 242
60.44, 233
60.45, 239
60.46, 231
60.47, 210
60.48, 232
60.49, 249
60.5, 231
60.51, 221
60.52, 231
60.53, 249
60.54, 189
60.55, 214
60.56, 217
60.57, 232
60.58, 212
60.59, 225
60.6, 226
60.61, 241
60.62, 221
60.63, 228
60.64, 196
60.65, 215
60.66, 204
60.67, 213
60.68, 241
60.69, 244
60.7, 216
60.71, 226
60.72, 200
60.73, 244
60.74, 194
60.75, 238
60.76, 234
60.77, 240
60.78, 201
60.79, 214
60.8, 211
60.81, 222
60.82, 206
60.83, 248
60.84, 243
60.85, 210
60.86, 210
60.87, 243
60.88, 233
60.89, 226
60.9, 211
60.91, 249
60.92, 235
60.93, 224
60.94, 204
60.95, 231
60.96, 223
60.97, 221
60.98, 230
60.99, 196
61, 211
61.01, 255
61.02, 207
61.03, 216
61.04, 182
61.05, 238
61.06, 209
61.07, 228
61.08, 206
61.09, 227
61.1, 230
61.11, 224
61.12, 228
61.13, 209
61.14, 245
61.15, 223
61.16, 188
61.17, 224
61.18, 204
61.19, 216
61.2, 205
61.21, 224
61.22, 212
61.23, 189
61.24, 221
61.25, 214
61.26, 216
61.27, 224
61.28, 252
61.29, 204
61.3, 203
61.31, 214
61.32, 227
61.33, 209
61.34, 225
61.35, 229
61.36, 214
61.37, 236
61.38, 221
61.39, 187
61.4, 244
61.41, 215
61.42, 243
61.43, 231
61.44, 214
61.45, 230
61.46, 226
61.47, 210
61.48, 218
61.49, 223
61.5, 201
61.51, 240
61.52, 213
61.53, 225
61.54, 222
61.55, 222
61.56, 210
61.57, 205
61.58, 218
61.59, 227
61.6, 228
61.61, 238
61.62, 212
61.63, 228
61.64, 222
61.65, 195
61.66, 213
61.67, 219
61.68, 209
61.69, 223
61.7, 226
61.71, 185
61.72, 253
61.73, 219
61.74, 231
61.75, 221
61.76, 233
61.77, 222
61.78, 242
61.79, 240
61.8, 231
61.81, 221
61.82, 185
61.83, 214
61.84, 218
61.85, 231
61.86, 228
61.87, 232
61.88, 249
61.89, 208
61.9, 215
61.91, 259
61.92, 233
61.93, 201
61.94, 195
61.95, 240
61.96, 219
61.97, 206
61.98, 221
61.99, 214
62, 221
62.01, 222
62.02, 204
62.03, 257
62.04, 226
62.05, 191
62.06, 240
62.07, 236
62.08, 235
62.09, 224
62.1, 218
62.11, 246
62.12, 218
62.13, 245
62.14, 216
62.15, 255
62.16, 239
62.17, 234
62.18, 221
62.19, 235
62.2, 195
62.21, 236
62.22, 205
62.23, 221
62.24, 220
62.25, 216
62.26, 219
62.27, 251
62.28, 246
62.29, 230
62.3, 256
62.31, 246
62.32, 236
62.33, 225
62.34, 237
62.35, 257
62.36, 249
62.37, 247
62.38, 252
62.39, 236
62.4, 268
62.41, 270
62.42, 275
62.43, 271
62.44, 231
62.45, 255
62.46, 249
62.47, 290
62.48, 270
62.49, 295
62.5, 277
62.51, 256
62.52, 270
62.53, 278
62.54, 250
62.55, 262
62.56, 240
62.57, 229
62.58, 235
62.59, 270
62.6, 294
62.61, 248
62.62, 224
62.63, 278
62.64, 215
62.65, 232
62.66, 236
62.67, 246
62.68, 252
62.69, 235
62.7, 243
62.71, 228
62.72, 251
62.73, 236
62.74, 235
62.75, 244
62.76, 226
62.77, 236
62.78, 250
62.79, 221
62.8, 223
62.81, 223
62.82, 218
62.83, 200
62.84, 244
62.85, 224
62.86, 238
62.87, 231
62.88, 211
62.89, 242
62.9, 252
62.91, 204
62.92, 242
62.93, 211
62.94, 239
62.95, 219
62.96, 237
62.97, 232
62.98, 218
62.99, 231
63, 243
63.01, 220
63.02, 234
63.03, 240
63.04, 225
63.05, 229
63.06, 229
63.07, 238
63.08, 224
63.09, 219
63.1, 220
63.11, 200
63.12, 236
63.13, 241
63.14, 205
63.15, 212
63.16, 212
63.17, 216
63.18, 246
63.19, 244
63.2, 226
63.21, 206
63.22, 213
63.23, 223
63.24, 227
63.25, 225
63.26, 225
63.27, 239
63.28, 236
63.29, 238
63.3, 210
63.31, 240
63.32, 241
63.33, 196
63.34, 212
63.35, 207
63.36, 234
63.37, 258
63.38, 231
63.39, 249
63.4, 213
63.41, 225
63.42, 236
63.43, 252
63.44, 224
63.45, 241
63.46, 225
63.47, 208
63.48, 231
63.49, 227
63.5, 207
63.51, 229
63.52, 193
63.53, 236
63.54, 213
63.55, 219
63.56, 220
63.57, 228
63.58, 227
63.59, 234
63.6, 245
63.61, 214
63.62, 247
63.63, 236
63.64, 202
63.65, 219
63.66, 248
63.67, 236
63.68, 248
63.69, 241
63.7, 221
63.71, 250
63.72, 233
63.73, 211
63.74, 193
63.75, 229
63.76, 248
63.77, 251
63.78, 217
63.79, 240
63.8, 273
63.81, 243
63.82, 243
63.83, 244
63.84, 217
63.85, 239
63.86, 237
63.87, 225
63.88, 242
63.89, 238
63.9, 227
63.91, 217
63.92, 265
63.93, 216
63.94, 268
63.95, 249
63.96, 243
63.97, 277
63.98, 270
63.99, 232
64, 244
64.01, 263
64.02, 252
64.03, 263
64.04, 271
64.05, 256
64.06, 238
64.07, 262
64.08, 254
64.09, 262
64.1, 251
64.11, 258
64.12, 264
64.13, 256
64.14, 256
64.15, 257
64.16, 241
64.17, 276
64.18, 233
64.19, 260
64.2, 262
64.21, 256
64.22, 260
64.23, 255
64.24, 268
64.25, 230
64.26, 250
64.27, 240
64.28, 229
64.29, 222
64.3, 244
64.31, 241
64.32, 224
64.33, 234
64.34, 225
64.35, 233
64.36, 239
64.37, 263
64.38, 233
64.39, 209
64.4, 221
64.41, 206
64.42, 239
64.43, 239
64.44, 245
64.45, 265
64.46, 239
64.47, 255
64.48, 198
64.49, 231
64.5, 226
64.51, 212
64.52, 227
64.53, 213
64.54, 218
64.55, 230
64.56, 241
64.57, 245
64.58, 229
64.59, 233
64.6, 212
64.61, 237
64.62, 223
64.63, 227
64.64, 232
64.65, 220
64.66, 234
64.67, 243
64.68, 216
64.69, 207
64.7, 243
64.71, 210
64.72, 191
64.73, 235
64.74, 220
64.75, 234
64.76, 231
64.77, 214
64.78, 237
64.79, 216
64.8, 211
64.81, 215
64.82, 210
64.83, 233
64.84, 231
64.85, 241
64.86, 241
64.87, 235
64.88, 222
64.89, 222
64.9, 217
64.91, 235
64.92, 225
64.93, 233
64.94, 218
64.95, 246
64.96, 231
64.97, 230
64.98, 227
64.99, 244
65, 218
65.01, 236
65.02, 218
65.03, 205
65.04, 223
65.05, 225
65.06, 214
65.07, 223
65.08, 225
65.09, 214
65.1, 205
65.11, 236
65.12, 237
65.13, 250
65.14, 233
65.15, 247
65.16, 217
65.17, 235
65.18, 192
65.19, 252
65.2, 221
65.21, 233
65.22, 190
65.23, 226
65.24, 228
65.25, 252
65.26, 229
65.27, 219
65.28, 234
65.29, 237
65.3, 206
65.31, 214
65.32, 226
65.33, 209
65.34, 212
65.35, 222
65.36, 249
65.37, 216
65.38, 222
65.39, 230
65.4, 229
65.41, 204
65.42, 238
65.43, 234
65.44, 200
65.45, 234
65.46, 208
65.47, 242
65.48, 226
65.49, 235
65.5, 231
65.51, 245
65.52, 215
65.53, 221
65.54, 227
65.55, 226
65.56, 223
65.57, 201
65.58, 239
65.59, 241
65.6, 209
65.61, 232
65.62, 242
65.63, 195
65.64, 237
65.65, 244
65.66, 214
65.67, 227
65.68, 247
65.69, 229
65.7, 227
65.71, 240
65.72, 229
65.73, 233
65.74, 231
65.75, 221
65.76, 211
65.77, 216
65.78, 214
65.79, 243
65.8, 206
65.81, 191
65.82, 229
65.83, 219
65.84, 209
65.85, 233
65.86, 253
65.87, 197
65.88, 221
65.89, 204
65.9, 200
65.91, 223
65.92, 220
65.93, 224
65.94, 221
65.95, 214
65.96, 227
65.97, 221
65.98, 245
65.99, 221
66, 213
66.01, 259
66.02, 219
66.03, 233
66.04, 205
66.05, 220
66.06, 213
66.07, 233
66.08, 224
66.09, 250
66.1, 223
66.11, 229
66.12, 240
66.13, 225
66.14, 256
66.15, 213
66.16, 208
66.17, 242
66.18, 211
66.19, 250
66.2, 229
66.21, 199
66.22, 229
66.23, 232
66.24, 221
66.25, 231
66.26, 219
66.27, 228
66.28, 225
66.29, 230
66.3, 213
66.31, 233
66.32, 225
66.33, 221
66.34, 228
66.35, 207
66.36, 220
66.37, 217
66.38, 232
66.39, 234
66.4, 211
66.41, 228
66.42, 223
66.43, 247
66.44, 218
66.45, 229
66.46, 208
66.47, 218
66.48, 218
66.49, 230
66.5, 223
66.51, 218
66.52, 208
66.53, 223
66.54, 198
66.55, 235
66.56, 216
66.57, 220
66.58, 229
66.59, 214
66.6, 213
66.61, 222
66.62, 226
66.63, 235
66.64, 250
66.65, 195
66.66, 206
66.67, 197
66.68, 240
66.69, 241
66.7, 200
66.71, 246
66.72, 200
66.73, 212
66.74, 219
66.75, 230
66.76, 218
66.77, 224
66.78, 217
66.79, 220
66.8, 230
66.81, 223
66.82, 254
66.83, 210
66.84, 233
66.85, 222
66.86, 211
66.87, 206
66.88, 198
66.89, 224
66.9, 234
66.91, 233
66.92, 210
66.93, 226
66.94, 226
66.95, 212
66.96, 231
66.97, 207
66.98, 214
66.99, 192
67, 218
67.01, 239
67.02, 246
67.03, 223
67.04, 242
67.05, 213
67.06, 230
67.07, 239
67.08, 223
67.09, 234
67.1, 242
67.11, 217
67.12, 239
67.13, 224
67.14, 237
67.15, 222
67.16, 214
67.17, 221
67.18, 228
67.19, 228
67.2, 221
67.21, 234
67.22, 234
67.23, 228
67.24, 238
67.25, 198
67.26, 252
67.27, 215
67.28, 178
67.29, 231
67.3, 204
67.31, 227
67.32, 235
67.33, 221
67.34, 238
67.35, 202
67.36, 229
67.37, 232
67.38, 236
67.39, 228
67.4, 232
67.41, 250
67.42, 266
67.43, 227
67.44, 206
67.45, 219
67.46, 212
67.47, 229
67.48, 230
67.49, 235
67.5, 237
67.51, 226
67.52, 239
67.53, 214
67.54, 220
67.55, 226
67.56, 237
67.57, 208
67.58, 237
67.59, 223
67.6, 268
67.61, 213
67.62, 239
67.63, 219
67.64, 201
67.65, 211
67.66, 236
67.67, 209
67.68, 228
67.69, 198
67.7, 193
67.71, 216
67.72, 226
67.73, 234
67.74, 210
67.75, 193
67.76, 261
67.77, 211
67.78, 201
67.79, 203
67.8, 222
67.81, 217
67.82, 266
67.83, 243
67.84, 210
67.85, 189
67.86, 226
67.87, 215
67.88, 235
67.89, 233
67.9, 231
67.91, 204
67.92, 227
67.93, 231
67.94, 213
67.95, 229
67.96, 237
67.97, 209
67.98, 219
67.99, 235
68, 235
68.01, 205
68.02, 240
68.03, 240
68.04, 246
68.05, 232
68.06, 210
68.07, 232
68.08, 235
68.09, 227
68.1, 220
68.11, 224
68.12, 233
68.13, 241
68.14, 235
68.15, 218
68.16, 209
68.17, 236
68.18, 200
68.19, 224
68.2, 221
68.21, 203
68.22, 236
68.23, 232
68.24, 221
68.25, 253
68.26, 225
68.27, 243
68.28, 212
68.29, 223
68.3, 209
68.31, 207
68.32, 200
68.33, 221
68.34, 243
68.35, 206
68.36, 202
68.37, 241
68.38, 207
68.39, 222
68.4, 236
68.41, 216
68.42, 221
68.43, 216
68.44, 213
68.45, 220
68.46, 219
68.47, 209
68.48, 241
68.49, 229
68.5, 217
68.51, 249
68.52, 242
68.53, 250
68.54, 229
68.55, 210
68.56, 234
68.57, 231
68.58, 249
68.59, 194
68.6, 242
68.61, 224
68.62, 223
68.63, 218
68.64, 231
68.65, 238
68.66, 212
68.67, 210
68.68, 235
68.69, 243
68.7, 227
68.71, 234
68.72, 242
68.73, 229
68.74, 210
68.75, 224
68.76, 225
68.77, 220
68.78, 224
68.79, 214
68.8, 233
68.81, 225
68.82, 231
68.83, 239
68.84, 226
68.85, 194
68.86, 229
68.87, 231
68.88, 219
68.89, 223
68.9, 243
68.91, 194
68.92, 231
68.93, 224
68.94, 230
68.95, 233
68.96, 242
68.97, 226
68.98, 225
68.99, 228
69, 232
69.01, 215
69.02, 216
69.03, 199
69.04, 238
69.05, 236
69.06, 258
69.07, 223
69.08, 227
69.09, 241
69.1, 252
69.11, 219
69.12, 211
69.13, 230
69.14, 224
69.15, 208
69.16, 218
69.17, 215
69.18, 208
69.19, 228
69.2, 215
69.21, 231
69.22, 230
69.23, 243
69.24, 227
69.25, 210
69.26, 243
69.27, 219
69.28, 228
69.29, 241
69.3, 233
69.31, 234
69.32, 217
69.33, 227
69.34, 182
69.35, 230
69.36, 206
69.37, 237
69.38, 237
69.39, 209
69.4, 235
69.41, 229
69.42, 244
69.43, 228
69.44, 240
69.45, 234
69.46, 228
69.47, 211
69.48, 249
69.49, 199
69.5, 234
69.51, 195
69.52, 232
69.53, 237
69.54, 233
69.55, 257
69.56, 212
69.57, 211
69.58, 205
69.59, 246
69.6, 268
69.61, 245
69.62, 226
69.63, 219
69.64, 224
69.65, 263
69.66, 211
69.67, 232
69.68, 226
69.69, 224
69.7, 234
69.71, 242
69.72, 203
69.73, 208
69.74, 225
69.75, 186
69.76, 207
69.77, 221
69.78, 247
69.79, 220
69.8, 219
69.81, 225
69.82, 219
69.83, 213
69.84, 216
69.85, 215
69.86, 212
69.87, 213
69.88, 234
69.89, 235
69.9, 231
69.91, 238
69.92, 246
69.93, 231
69.94, 243
69.95, 216
69.96, 203
69.97, 224
69.98, 235
69.99, 224
70, 225