Created as New Dataset;Sample 057 By Administrator Date donderdag, februari 26 2026,
cm-1,%T,comma
4000,60,95
3999,60,77
3998,60,87
3997,61,0
3996,60,64
3995,60,64
3994,60,81
3993,60,75
3992,60,74
3991,60,56
3990,60,60
3989,60,67
3988,60,47
3987,60,36
3986,60,81
3985,60,74
3984,61,1
3983,60,53
3982,60,73
3981,60,65
3980,60,60
3979,60,58
3978,60,80
3977,60,67
3976,60,53
3975,60,51
3974,60,40
3973,60,96
3972,60,73
3971,60,56
3970,60,54
3969,60,30
3968,60,42
3967,60,77
3966,60,75
3965,60,39
3964,60,64
3963,60,86
3962,60,46
3961,60,48
3960,60,58
3959,60,48
3958,60,48
3957,60,46
3956,60,50
3955,60,73
3954,60,51
3953,60,63
3952,60,69
3951,60,61
3950,60,0
3949,60,28
3948,60,28
3947,60,35
3946,60,12
3945,60,55
3944,60,24
3943,60,23
3942,60,1
3941,60,16
3940,60,52
3939,60,45
3938,60,48
3937,60,29
3936,60,21
3935,60,44
3934,60,30
3933,60,7
3932,59,80
3931,60,4
3930,59,88
3929,60,14
3928,60,25
3927,60,49
3926,60,15
3925,59,98
3924,59,85
3923,60,17
3922,60,28
3921,60,38
3920,60,9
3919,60,8
3918,59,94
3917,60,5
3916,59,66
3915,60,36
3914,60,26
3913,60,20
3912,60,43
3911,60,50
3910,60,56
3909,60,33
3908,60,48
3907,60,26
3906,59,96
3905,59,17
3904,58,93
3903,59,33
3902,59,37
3901,59,66
3900,59,83
3899,59,54
3898,59,63
3897,59,82
3896,60,15
3895,59,94
3894,59,67
3893,59,82
3892,59,27
3891,59,47
3890,59,72
3889,60,11
3888,59,91
3887,59,83
3886,59,61
3885,59,59
3884,59,71
3883,59,48
3882,59,63
3881,59,15
3880,58,48
3879,59,52
3878,60,19
3877,60,29
3876,60,3
3875,59,85
3874,59,27
3873,59,46
3872,59,76
3871,58,82
3870,57,69
3869,58,81
3868,59,63
3867,59,77
3866,59,67
3865,58,97
3864,59,5
3863,59,39
3862,59,8
3861,59,71
3860,59,77
3859,59,98
3858,59,88
3857,59,27
3856,59,35
3855,57,54
3854,58,39
3853,56,79
3852,57,71
3851,58,79
3850,59,16
3849,59,64
3848,59,88
3847,60,6
3846,60,6
3845,59,90
3844,59,15
3843,59,38
3842,59,56
3841,59,38
3840,58,40
3839,57,96
3838,57,91
3837,58,33
3836,59,24
3835,59,37
3834,59,13
3833,59,19
3832,59,43
3831,59,14
3830,59,60
3829,59,86
3828,59,45
3827,59,15
3826,59,47
3825,59,37
3824,59,48
3823,59,44
3822,58,38
3821,58,49
3820,57,87
3819,58,63
3818,59,32
3817,58,86
3816,57,93
3815,58,98
3814,59,67
3813,59,73
3812,59,75
3811,59,75
3810,59,58
3809,59,82
3808,59,26
3807,58,44
3806,58,76
3805,59,48
3804,59,42
3803,58,98
3802,58,18
3801,56,31
3800,58,33
3799,59,1
3798,59,27
3797,59,14
3796,58,98
3795,59,26
3794,59,81
3793,59,63
3792,59,62
3791,59,68
3790,60,9
3789,59,57
3788,59,58
3787,59,70
3786,59,40
3785,59,32
3784,59,30
3783,59,65
3782,59,64
3781,59,15
3780,59,18
3779,58,85
3778,59,15
3777,59,47
3776,59,67
3775,59,47
3774,59,79
3773,59,76
3772,59,25
3771,59,34
3770,59,25
3769,58,93
3768,58,76
3767,59,36
3766,59,64
3765,58,95
3764,59,37
3763,59,45
3762,59,39
3761,59,29
3760,59,12
3759,58,31
3758,58,64
3757,58,87
3756,58,66
3755,59,12
3754,59,5
3753,58,54
3752,57,5
3751,57,14
3750,56,63
3749,57,38
3748,57,98
3747,58,53
3746,58,35
3745,58,87
3744,56,44
3743,58,32
3742,58,61
3741,58,75
3740,58,72
3739,58,71
3738,58,38
3737,57,2
3736,57,5
3735,56,91
3734,57,84
3733,58,79
3732,57,80
3731,58,52
3730,58,61
3729,59,7
3728,58,94
3727,58,84
3726,58,31
3725,58,54
3724,58,89
3723,58,68
3722,58,44
3721,58,60
3720,59,3
3719,58,69
3718,58,95
3717,59,20
3716,59,12
3715,59,4
3714,58,80
3713,58,12
3712,57,9
3711,57,56
3710,57,67
3709,57,99
3708,58,63
3707,58,86
3706,59,43
3705,59,7
3704,58,84
3703,58,92
3702,58,87
3701,58,70
3700,58,75
3699,58,95
3698,59,14
3697,59,19
3696,58,98
3695,58,95
3694,59,19
3693,58,86
3692,58,32
3691,57,31
3690,57,54
3689,56,95
3688,57,22
3687,58,5
3686,58,56
3685,58,80
3684,58,84
3683,59,30
3682,59,5
3681,58,77
3680,58,91
3679,58,31
3678,58,44
3677,58,12
3676,57,45
3675,56,59
3674,57,20
3673,58,31
3672,58,26
3671,56,35
3670,57,15
3669,57,18
3668,57,81
3667,58,57
3666,58,97
3665,58,79
3664,58,94
3663,58,97
3662,58,79
3661,59,6
3660,58,96
3659,59,5
3658,58,58
3657,58,24
3656,57,87
3655,58,8
3654,58,74
3653,58,45
3652,58,15
3651,57,26
3650,55,82
3649,56,77
3648,56,71
3647,56,4
3646,57,41
3645,58,48
3644,58,58
3643,58,45
3642,58,45
3641,58,52
3640,58,46
3639,59,6
3638,58,30
3637,58,38
3636,58,71
3635,58,66
3634,58,23
3633,58,15
3632,58,32
3631,57,99
3630,57,47
3629,57,84
3628,56,85
3627,58,10
3626,57,93
3625,58,58
3624,58,60
3623,58,67
3622,58,44
3621,57,80
3620,56,88
3619,57,31
3618,57,16
3617,57,90
3616,58,33
3615,58,2
3614,57,47
3613,58,10
3612,57,66
3611,57,98
3610,58,31
3609,57,60
3608,57,67
3607,57,70
3606,57,96
3605,58,56
3604,58,19
3603,58,45
3602,58,20
3601,57,93
3600,57,89
3599,58,2
3598,57,99
3597,57,80
3596,57,72
3595,58,8
3594,57,95
3593,57,86
3592,58,3
3591,58,81
3590,58,33
3589,57,76
3588,57,43
3587,57,36
3586,57,53
3585,57,64
3584,58,15
3583,58,25
3582,58,41
3581,58,51
3580,58,13
3579,58,7
3578,58,14
3577,58,17
3576,58,42
3575,58,25
3574,58,0
3573,58,24
3572,58,37
3571,58,30
3570,57,63
3569,57,94
3568,57,63
3567,57,27
3566,57,20
3565,57,22
3564,57,56
3563,58,15
3562,58,2
3561,58,1
3560,58,23
3559,58,27
3558,57,81
3557,57,86
3556,58,34
3555,58,25
3554,57,86
3553,57,73
3552,57,46
3551,57,81
3550,58,22
3549,57,77
3548,57,91
3547,57,77
3546,57,48
3545,57,48
3544,57,45
3543,58,22
3542,58,13
3541,57,97
3540,58,3
3539,58,4
3538,58,15
3537,57,70
3536,57,91
3535,58,21
3534,58,8
3533,58,18
3532,58,6
3531,57,98
3530,57,83
3529,57,56
3528,57,35
3527,57,35
3526,57,70
3525,57,75
3524,57,84
3523,57,61
3522,57,73
3521,57,97
3520,57,75
3519,57,93
3518,57,87
3517,58,0
3516,57,89
3515,57,98
3514,58,10
3513,57,77
3512,58,12
3511,58,2
3510,57,36
3509,57,29
3508,57,84
3507,57,84
3506,57,83
3505,57,90
3504,57,89
3503,57,48
3502,57,55
3501,57,63
3500,57,66
3499,57,80
3498,57,54
3497,57,71
3496,57,77
3495,57,69
3494,57,89
3493,57,82
3492,57,86
3491,57,93
3490,57,74
3489,57,84
3488,58,4
3487,57,67
3486,57,83
3485,57,59
3484,57,57
3483,57,60
3482,57,72
3481,57,60
3480,57,82
3479,57,50
3478,57,72
3477,57,52
3476,57,84
3475,57,72
3474,57,57
3473,57,99
3472,57,64
3471,57,42
3470,57,68
3469,57,66
3468,57,45
3467,57,72
3466,57,91
3465,57,55
3464,57,66
3463,57,63
3462,57,56
3461,57,35
3460,57,71
3459,57,72
3458,57,51
3457,57,49
3456,57,34
3455,57,29
3454,57,48
3453,57,46
3452,57,56
3451,57,73
3450,57,44
3449,57,43
3448,57,45
3447,56,87
3446,57,19
3445,57,50
3444,57,53
3443,57,15
3442,57,39
3441,57,56
3440,57,47
3439,57,21
3438,57,47
3437,57,34
3436,57,53
3435,57,49
3434,57,51
3433,57,51
3432,57,39
3431,57,26
3430,57,26
3429,57,25
3428,57,23
3427,57,39
3426,57,15
3425,57,36
3424,57,38
3423,57,30
3422,57,41
3421,57,32
3420,57,5
3419,57,51
3418,57,37
3417,57,39
3416,57,38
3415,57,25
3414,57,28
3413,57,37
3412,57,36
3411,57,21
3410,57,6
3409,57,40
3408,57,57
3407,57,2
3406,57,23
3405,57,33
3404,57,11
3403,57,27
3402,57,47
3401,57,25
3400,57,40
3399,57,38
3398,57,17
3397,57,14
3396,57,35
3395,57,3
3394,57,2
3393,57,5
3392,57,7
3391,57,2
3390,57,30
3389,57,25
3388,56,97
3387,56,93
3386,56,99
3385,57,8
3384,56,91
3383,56,76
3382,56,99
3381,56,93
3380,56,90
3379,57,5
3378,57,16
3377,56,90
3376,56,92
3375,56,77
3374,57,9
3373,57,6
3372,57,5
3371,57,2
3370,56,80
3369,56,99
3368,57,7
3367,56,76
3366,57,0
3365,56,76
3364,57,8
3363,56,88
3362,56,67
3361,56,75
3360,56,96
3359,56,76
3358,56,75
3357,56,63
3356,56,96
3355,56,84
3354,57,4
3353,56,54
3352,56,86
3351,56,84
3350,56,87
3349,56,79
3348,56,71
3347,56,71
3346,56,69
3345,56,76
3344,56,42
3343,56,55
3342,56,55
3341,56,64
3340,56,51
3339,56,99
3338,56,42
3337,56,43
3336,56,75
3335,56,57
3334,56,50
3333,56,51
3332,56,66
3331,56,57
3330,56,66
3329,56,20
3328,56,70
3327,56,38
3326,56,49
3325,56,57
3324,56,59
3323,56,37
3322,56,60
3321,56,26
3320,56,30
3319,56,46
3318,56,42
3317,56,47
3316,56,62
3315,56,20
3314,56,29
3313,56,27
3312,56,31
3311,56,47
3310,56,19
3309,56,45
3308,56,35
3307,56,37
3306,56,54
3305,56,62
3304,56,46
3303,56,54
3302,56,56
3301,56,25
3300,56,26
3299,56,32
3298,56,11
3297,56,34
3296,56,35
3295,56,35
3294,56,61
3293,56,9
3292,56,20
3291,56,43
3290,56,63
3289,56,32
3288,56,17
3287,56,6
3286,56,15
3285,56,16
3284,56,23
3283,56,13
3282,56,5
3281,56,27
3280,56,10
3279,56,10
3278,56,10
3277,56,11
3276,56,0
3275,56,8
3274,56,9
3273,55,84
3272,55,89
3271,56,8
3270,55,87
3269,55,97
3268,56,5
3267,55,83
3266,55,95
3265,55,71
3264,55,97
3263,55,94
3262,55,98
3261,56,3
3260,55,75
3259,55,68
3258,56,6
3257,55,81
3256,56,2
3255,55,98
3254,55,82
3253,55,75
3252,55,85
3251,55,93
3250,55,80
3249,55,93
3248,55,82
3247,55,74
3246,55,89
3245,56,2
3244,55,61
3243,55,64
3242,55,68
3241,55,61
3240,55,65
3239,55,72
3238,55,72
3237,55,64
3236,55,52
3235,55,72
3234,55,71
3233,55,57
3232,55,52
3231,55,59
3230,55,65
3229,55,56
3228,55,45
3227,55,74
3226,55,78
3225,55,54
3224,55,79
3223,55,53
3222,55,63
3221,55,53
3220,55,44
3219,55,71
3218,55,56
3217,55,19
3216,55,48
3215,55,48
3214,55,65
3213,55,38
3212,55,46
3211,55,60
3210,55,50
3209,55,37
3208,55,13
3207,55,31
3206,55,51
3205,55,67
3204,55,43
3203,55,31
3202,55,35
3201,55,21
3200,55,59
3199,55,42
3198,55,30
3197,55,30
3196,55,28
3195,55,27
3194,55,30
3193,55,45
3192,55,37
3191,55,11
3190,54,79
3189,55,36
3188,55,31
3187,55,31
3186,55,21
3185,55,35
3184,55,5
3183,55,7
3182,55,22
3181,55,32
3180,55,2
3179,55,6
3178,54,82
3177,54,92
3176,55,4
3175,55,12
3174,55,20
3173,55,7
3172,55,25
3171,55,0
3170,55,3
3169,55,18
3168,54,96
3167,55,19
3166,54,98
3165,55,12
3164,55,7
3163,55,15
3162,55,22
3161,55,12
3160,55,9
3159,55,17
3158,55,4
3157,55,2
3156,54,90
3155,54,90
3154,54,96
3153,54,98
3152,55,4
3151,54,90
3150,54,99
3149,54,92
3148,54,94
3147,54,94
3146,54,95
3145,54,96
3144,54,92
3143,54,82
3142,54,94
3141,54,74
3140,54,68
3139,54,87
3138,54,78
3137,55,0
3136,54,64
3135,54,75
3134,54,82
3133,54,75
3132,54,70
3131,54,71
3130,55,1
3129,54,70
3128,54,67
3127,54,56
3126,54,67
3125,54,53
3124,54,62
3123,54,70
3122,54,60
3121,54,73
3120,54,54
3119,54,65
3118,54,79
3117,54,41
3116,54,77
3115,54,79
3114,54,63
3113,54,68
3112,54,61
3111,54,51
3110,54,78
3109,54,36
3108,54,56
3107,54,79
3106,54,40
3105,54,57
3104,54,45
3103,54,57
3102,54,65
3101,54,23
3100,54,66
3099,54,57
3098,54,44
3097,54,41
3096,54,62
3095,54,40
3094,54,45
3093,54,39
3092,54,45
3091,54,38
3090,54,40
3089,54,29
3088,54,39
3087,54,36
3086,54,43
3085,54,45
3084,54,47
3083,54,37
3082,54,22
3081,54,24
3080,54,39
3079,54,49
3078,54,42
3077,54,55
3076,54,26
3075,54,15
3074,54,34
3073,54,22
3072,54,18
3071,54,48
3070,54,22
3069,54,13
3068,54,16
3067,54,25
3066,54,21
3065,54,19
3064,53,99
3063,54,22
3062,54,32
3061,54,26
3060,54,20
3059,54,37
3058,53,99
3057,54,24
3056,54,5
3055,54,15
3054,54,6
3053,54,13
3052,54,18
3051,54,20
3050,53,99
3049,54,20
3048,54,12
3047,53,90
3046,54,14
3045,54,6
3044,54,8
3043,53,98
3042,54,9
3041,54,17
3040,53,99
3039,54,21
3038,54,0
3037,54,3
3036,53,87
3035,53,95
3034,53,94
3033,54,3
3032,53,79
3031,53,81
3030,54,4
3029,54,0
3028,53,74
3027,53,85
3026,53,95
3025,53,85
3024,54,11
3023,54,10
3022,53,65
3021,53,78
3020,53,82
3019,53,88
3018,54,2
3017,53,89
3016,53,72
3015,53,92
3014,53,99
3013,53,76
3012,53,98
3011,53,91
3010,53,65
3009,53,91
3008,53,53
3007,53,70
3006,53,84
3005,53,70
3004,53,62
3003,53,72
3002,53,66
3001,53,76
3000,53,71
2999,53,64
2998,53,73
2997,53,84
2996,53,73
2995,53,67
2994,53,65
2993,53,68
2992,53,56
2991,53,71
2990,53,70
2989,53,47
2988,53,64
2987,53,45
2986,53,76
2985,53,85
2984,53,70
2983,53,44
2982,53,62
2981,53,62
2980,53,64
2979,53,36
2978,53,47
2977,53,74
2976,53,55
2975,53,44
2974,53,65
2973,53,57
2972,53,51
2971,53,59
2970,53,55
2969,53,56
2968,53,46
2967,53,25
2966,53,50
2965,53,64
2964,53,43
2963,53,30
2962,53,41
2961,53,36
2960,53,52
2959,53,34
2958,53,43
2957,53,50
2956,53,32
2955,53,36
2954,53,38
2953,53,48
2952,53,39
2951,53,38
2950,53,40
2949,53,36
2948,53,39
2947,53,34
2946,53,11
2945,53,3
2944,53,42
2943,53,25
2942,53,27
2941,53,25
2940,53,24
2939,53,32
2938,53,31
2937,53,21
2936,53,20
2935,53,14
2934,53,18
2933,53,37
2932,53,12
2931,53,16
2930,53,18
2929,53,31
2928,53,6
2927,53,17
2926,52,92
2925,53,12
2924,53,15
2923,53,9
2922,53,12
2921,53,16
2920,53,16
2919,52,95
2918,53,24
2917,53,12
2916,53,12
2915,53,13
2914,53,2
2913,52,98
2912,52,90
2911,52,95
2910,52,96
2909,53,5
2908,52,94
2907,52,93
2906,52,94
2905,53,13
2904,52,97
2903,52,84
2902,52,88
2901,53,5
2900,52,81
2899,53,4
2898,52,81
2897,52,83
2896,52,82
2895,53,6
2894,52,81
2893,52,78
2892,52,86
2891,52,86
2890,52,68
2889,52,78
2888,52,83
2887,52,78
2886,52,82
2885,52,86
2884,52,61
2883,52,60
2882,52,73
2881,52,75
2880,52,80
2879,52,71
2878,52,59
2877,52,63
2876,52,68
2875,52,79
2874,52,64
2873,52,60
2872,52,73
2871,52,64
2870,52,55
2869,52,49
2868,52,50
2867,52,50
2866,52,62
2865,52,66
2864,52,53
2863,52,44
2862,52,62
2861,52,51
2860,52,48
2859,52,64
2858,52,46
2857,52,37
2856,52,54
2855,52,42
2854,52,49
2853,52,41
2852,52,46
2851,52,39
2850,52,45
2849,52,45
2848,52,40
2847,52,55
2846,52,40
2845,52,34
2844,52,47
2843,52,34
2842,52,32
2841,52,28
2840,52,20
2839,52,26
2838,52,36
2837,52,50
2836,52,39
2835,52,28
2834,52,29
2833,52,36
2832,52,31
2831,52,16
2830,52,14
2829,52,4
2828,52,14
2827,52,24
2826,52,8
2825,52,27
2824,52,12
2823,52,16
2822,52,20
2821,52,18
2820,52,9
2819,52,3
2818,52,13
2817,52,17
2816,52,13
2815,51,97
2814,52,3
2813,52,2
2812,51,85
2811,52,16
2810,52,11
2809,52,4
2808,51,90
2807,52,5
2806,52,1
2805,51,86
2804,52,1
2803,51,92
2802,51,97
2801,51,94
2800,51,89
2799,51,95
2798,51,85
2797,51,91
2796,51,93
2795,51,93
2794,51,89
2793,51,93
2792,51,88
2791,51,80
2790,51,71
2789,51,66
2788,51,91
2787,51,83
2786,51,80
2785,51,72
2784,51,79
2783,51,69
2782,51,76
2781,51,53
2780,51,65
2779,51,69
2778,51,76
2777,51,74
2776,51,69
2775,51,69
2774,51,69
2773,51,58
2772,51,75
2771,51,57
2770,51,60
2769,51,61
2768,51,64
2767,51,53
2766,51,51
2765,51,63
2764,51,50
2763,51,49
2762,51,55
2761,51,38
2760,51,48
2759,51,38
2758,51,54
2757,51,48
2756,51,46
2755,51,52
2754,51,38
2753,51,47
2752,51,38
2751,51,39
2750,51,47
2749,51,45
2748,51,30
2747,51,30
2746,51,37
2745,51,39
2744,51,43
2743,51,12
2742,51,29
2741,51,39
2740,51,19
2739,51,21
2738,51,45
2737,51,24
2736,51,25
2735,51,17
2734,51,17
2733,51,23
2732,51,15
2731,51,9
2730,51,12
2729,51,14
2728,51,12
2727,51,8
2726,50,92
2725,51,15
2724,51,1
2723,51,9
2722,51,2
2721,51,5
2720,50,92
2719,50,92
2718,51,1
2717,50,92
2716,50,95
2715,50,98
2714,50,92
2713,51,7
2712,50,95
2711,50,92
2710,50,89
2709,51,0
2708,51,5
2707,50,90
2706,50,84
2705,50,78
2704,50,87
2703,50,79
2702,50,81
2701,50,75
2700,50,77
2699,50,80
2698,50,67
2697,50,71
2696,50,84
2695,50,71
2694,50,56
2693,50,72
2692,50,79
2691,50,75
2690,50,75
2689,50,71
2688,50,64
2687,50,41
2686,50,63
2685,50,53
2684,50,61
2683,50,56
2682,50,56
2681,50,41
2680,50,57
2679,50,59
2678,50,67
2677,50,44
2676,50,54
2675,50,52
2674,50,44
2673,50,51
2672,50,46
2671,50,33
2670,50,34
2669,50,47
2668,50,22
2667,50,37
2666,50,28
2665,50,35
2664,50,41
2663,50,45
2662,50,29
2661,50,16
2660,50,45
2659,50,21
2658,50,37
2657,50,14
2656,50,26
2655,50,25
2654,50,22
2653,50,0
2652,50,21
2651,50,12
2650,50,19
2649,50,22
2648,50,26
2647,50,6
2646,50,10
2645,49,97
2644,50,1
2643,50,6
2642,50,4
2641,50,0
2640,50,8
2639,49,98
2638,49,90
2637,50,1
2636,50,19
2635,50,12
2634,49,96
2633,49,86
2632,49,87
2631,49,92
2630,49,89
2629,50,0
2628,49,92
2627,50,0
2626,49,90
2625,49,90
2624,49,84
2623,49,72
2622,49,94
2621,49,91
2620,49,74
2619,49,84
2618,49,88
2617,49,78
2616,49,77
2615,49,76
2614,49,95
2613,49,80
2612,49,48
2611,49,61
2610,49,74
2609,49,59
2608,49,67
2607,49,66
2606,49,83
2605,49,72
2604,49,68
2603,49,63
2602,49,70
2601,49,58
2600,49,58
2599,49,58
2598,49,45
2597,49,56
2596,49,62
2595,49,55
2594,49,52
2593,49,29
2592,49,51
2591,49,45
2590,49,51
2589,49,70
2588,49,80
2587,49,55
2586,49,42
2585,49,31
2584,49,32
2583,49,43
2582,49,47
2581,49,63
2580,49,28
2579,49,38
2578,49,32
2577,49,55
2576,49,30
2575,49,23
2574,49,35
2573,49,54
2572,49,28
2571,49,35
2570,49,35
2569,49,36
2568,49,36
2567,49,28
2566,49,40
2565,49,29
2564,49,11
2563,49,14
2562,49,41
2561,49,19
2560,49,4
2559,49,16
2558,49,26
2557,49,27
2556,49,19
2555,49,14
2554,49,18
2553,49,15
2552,49,4
2551,49,9
2550,49,10
2549,49,10
2548,49,9
2547,49,4
2546,48,81
2545,49,7
2544,48,92
2543,48,99
2542,49,2
2541,48,81
2540,49,3
2539,48,96
2538,49,12
2537,48,97
2536,48,87
2535,49,0
2534,49,0
2533,48,83
2532,48,77
2531,49,3
2530,48,98
2529,48,80
2528,49,0
2527,48,81
2526,48,99
2525,48,68
2524,48,61
2523,48,81
2522,48,85
2521,48,97
2520,48,98
2519,48,86
2518,48,40
2517,48,83
2516,48,78
2515,48,65
2514,48,85
2513,48,67
2512,48,77
2511,48,56
2510,48,65
2509,48,59
2508,48,68
2507,48,65
2506,48,76
2505,48,63
2504,48,46
2503,48,48
2502,48,65
2501,48,66
2500,48,64
2499,48,81
2498,48,56
2497,48,38
2496,48,64
2495,48,48
2494,48,65
2493,48,65
2492,48,75
2491,48,44
2490,48,36
2489,48,39
2488,48,49
2487,48,46
2486,48,36
2485,48,18
2484,48,27
2483,48,25
2482,48,41
2481,48,35
2480,48,30
2479,48,31
2478,48,36
2477,48,49
2476,48,47
2475,48,31
2474,48,43
2473,48,32
2472,48,30
2471,48,24
2470,48,34
2469,48,5
2468,48,33
2467,48,29
2466,48,32
2465,47,96
2464,48,10
2463,48,29
2462,48,16
2461,48,11
2460,48,32
2459,48,0
2458,48,13
2457,48,9
2456,48,12
2455,48,14
2454,48,7
2453,47,85
2452,47,85
2451,47,89
2450,47,98
2449,48,1
2448,47,94
2447,47,94
2446,47,81
2445,47,84
2444,47,98
2443,48,3
2442,47,94
2441,47,91
2440,47,79
2439,47,90
2438,47,80
2437,48,4
2436,47,99
2435,47,85
2434,47,75
2433,47,78
2432,47,82
2431,47,76
2430,47,73
2429,47,87
2428,47,61
2427,47,66
2426,47,78
2425,47,67
2424,47,60
2423,47,76
2422,47,83
2421,47,53
2420,47,58
2419,47,63
2418,47,65
2417,47,65
2416,47,43
2415,47,55
2414,47,60
2413,47,78
2412,47,61
2411,47,60
2410,47,40
2409,47,42
2408,47,53
2407,47,59
2406,47,56
2405,47,48
2404,47,58
2403,47,58
2402,47,56
2401,47,34
2400,47,16
2399,47,56
2398,47,37
2397,47,54
2396,47,34
2395,47,44
2394,47,44
2393,47,38
2392,47,18
2391,47,22
2390,47,33
2389,47,36
2388,47,17
2387,47,1
2386,47,0
2385,47,20
2384,47,29
2383,47,10
2382,47,7
2381,46,93
2380,46,99
2379,47,11
2378,46,92
2377,46,84
2376,46,78
2375,47,6
2374,46,75
2373,46,78
2372,47,4
2371,46,50
2370,46,14
2369,46,49
2368,46,64
2367,45,99
2366,46,86
2365,47,31
2364,46,49
2363,46,29
2362,46,28
2361,45,97
2360,47,58
2359,46,20
2358,46,62
2357,45,98
2356,46,40
2355,46,61
2354,46,80
2353,46,0
2352,46,42
2351,46,12
2350,46,62
2349,46,48
2348,46,41
2347,46,69
2346,46,78
2345,46,37
2344,46,27
2343,46,34
2342,46,21
2341,45,97
2340,46,50
2339,46,56
2338,46,94
2337,46,36
2336,46,54
2335,46,61
2334,46,48
2333,46,16
2332,46,31
2331,46,39
2330,46,1
2329,46,28
2328,45,95
2327,46,28
2326,46,41
2325,46,49
2324,46,26
2323,45,87
2322,46,4
2321,46,20
2320,46,32
2319,46,21
2318,46,25
2317,45,76
2316,46,3
2315,46,3
2314,46,23
2313,45,54
2312,46,22
2311,46,9
2310,45,98
2309,45,85
2308,46,22
2307,46,17
2306,46,5
2305,46,27
2304,45,94
2303,46,14
2302,46,24
2301,46,21
2300,46,4
2299,46,2
2298,45,69
2297,46,22
2296,45,97
2295,46,8
2294,46,62
2293,46,7
2292,46,5
2291,46,12
2290,46,22
2289,45,95
2288,46,4
2287,46,16
2286,46,0
2285,45,72
2284,45,84
2283,45,86
2282,46,6
2281,45,86
2280,46,2
2279,46,4
2278,46,1
2277,46,6
2276,45,77
2275,46,2
2274,46,10
2273,45,87
2272,46,15
2271,46,30
2270,46,19
2269,46,17
2268,45,79
2267,46,5
2266,46,12
2265,46,10
2264,45,89
2263,46,12
2262,46,18
2261,46,30
2260,45,98
2259,45,96
2258,45,84
2257,45,63
2256,45,95
2255,45,99
2254,46,14
2253,45,82
2252,46,14
2251,46,6
2250,45,87
2249,46,19
2248,45,86
2247,46,11
2246,45,76
2245,46,18
2244,45,65
2243,45,94
2242,45,38
2241,46,10
2240,46,0
2239,46,17
2238,45,56
2237,45,92
2236,45,47
2235,45,57
2234,45,85
2233,45,75
2232,45,79
2231,45,85
2230,46,0
2229,45,98
2228,46,31
2227,45,99
2226,45,98
2225,45,39
2224,45,52
2223,46,3
2222,45,55
2221,45,83
2220,46,10
2219,45,61
2218,45,99
2217,45,33
2216,45,94
2215,45,67
2214,45,87
2213,46,1
2212,45,38
2211,46,15
2210,45,64
2209,45,57
2208,45,55
2207,46,7
2206,45,48
2205,45,88
2204,45,64
2203,45,32
2202,45,46
2201,45,35
2200,45,50
2199,45,82
2198,46,11
2197,46,12
2196,45,45
2195,45,58
2194,45,41
2193,45,32
2192,45,69
2191,45,50
2190,45,52
2189,45,71
2188,45,48
2187,45,79
2186,46,6
2185,45,41
2184,45,45
2183,46,17
2182,45,79
2181,45,73
2180,45,61
2179,45,60
2178,45,38
2177,45,89
2176,45,70
2175,45,83
2174,45,76
2173,46,13
2172,44,97
2171,45,52
2170,45,57
2169,45,20
2168,45,38
2167,45,46
2166,45,55
2165,45,73
2164,45,97
2163,45,79
2162,45,90
2161,46,38
2160,46,15
2159,45,63
2158,46,53
2157,45,87
2156,45,49
2155,45,38
2154,45,64
2153,45,73
2152,45,18
2151,45,76
2150,45,36
2149,45,12
2148,45,41
2147,45,58
2146,45,32
2145,45,16
2144,44,77
2143,44,94
2142,45,27
2141,44,62
2140,44,77
2139,45,7
2138,44,37
2137,44,47
2136,44,53
2135,44,87
2134,44,73
2133,44,16
2132,44,16
2131,44,53
2130,44,21
2129,44,71
2128,43,56
2127,44,10
2126,44,15
2125,43,97
2124,44,12
2123,43,72
2122,43,91
2121,43,97
2120,43,90
2119,44,17
2118,43,78
2117,43,66
2116,43,88
2115,43,90
2114,44,11
2113,44,26
2112,43,46
2111,43,64
2110,43,72
2109,43,84
2108,43,41
2107,43,77
2106,43,52
2105,43,46
2104,43,82
2103,43,33
2102,43,83
2101,43,78
2100,43,68
2099,43,49
2098,43,47
2097,43,91
2096,43,60
2095,43,74
2094,43,72
2093,43,26
2092,43,39
2091,43,52
2090,43,84
2089,43,46
2088,43,57
2087,43,5
2086,43,31
2085,43,30
2084,43,51
2083,43,54
2082,43,60
2081,43,17
2080,43,35
2079,43,38
2078,43,14
2077,43,40
2076,43,9
2075,43,45
2074,43,39
2073,43,31
2072,43,25
2071,43,30
2070,42,84
2069,43,28
2068,43,6
2067,43,23
2066,43,8
2065,43,29
2064,43,60
2063,43,29
2062,43,23
2061,43,34
2060,43,52
2059,43,47
2058,43,19
2057,42,84
2056,43,57
2055,43,37
2054,43,36
2053,42,91
2052,43,64
2051,43,1
2050,43,68
2049,43,41
2048,43,78
2047,43,58
2046,43,89
2045,43,55
2044,42,95
2043,43,88
2042,43,39
2041,43,68
2040,43,80
2039,43,21
2038,43,3
2037,43,60
2036,43,20
2035,43,27
2034,43,57
2033,44,2
2032,44,9
2031,43,72
2030,44,12
2029,43,64
2028,43,84
2027,43,36
2026,42,97
2025,43,51
2024,44,12
2023,43,25
2022,43,9
2021,43,95
2020,44,2
2019,43,49
2018,43,39
2017,43,81
2016,43,61
2015,43,45
2014,43,98
2013,43,16
2012,43,49
2011,44,2
2010,43,29
2009,43,54
2008,42,90
2007,42,91
2006,43,37
2005,43,7
2004,43,52
2003,43,35
2002,43,14
2001,42,72
2000,43,1
1999,42,93
1998,42,68
1997,42,63
1996,43,8
1995,42,28
1994,42,41
1993,42,57
1992,42,81
1991,42,42
1990,42,93
1989,42,83
1988,42,38
1987,42,87
1986,42,87
1985,41,95
1984,42,45
1983,42,72
1982,42,33
1981,42,51
1980,43,13
1979,42,96
1978,43,4
1977,43,20
1976,43,31
1975,43,35
1974,42,94
1973,42,62
1972,42,97
1971,42,36
1970,42,51
1969,42,56
1968,42,52
1967,42,80
1966,41,86
1965,42,44
1964,42,56
1963,42,11
1962,42,37
1961,42,37
1960,42,32
1959,41,92
1958,41,85
1957,42,16
1956,41,40
1955,41,72
1954,41,91
1953,41,61
1952,41,8
1951,41,48
1950,41,50
1949,41,60
1948,41,70
1947,41,91
1946,41,41
1945,41,56
1944,41,29
1943,41,23
1942,41,13
1941,41,24
1940,41,30
1939,41,28
1938,41,12
1937,41,20
1936,40,94
1935,41,13
1934,40,81
1933,40,88
1932,41,1
1931,40,69
1930,40,98
1929,40,75
1928,40,71
1927,40,67
1926,40,95
1925,40,69
1924,40,79
1923,40,52
1922,40,84
1921,40,44
1920,40,32
1919,40,49
1918,40,72
1917,40,57
1916,40,72
1915,40,44
1914,40,46
1913,40,63
1912,40,46
1911,40,61
1910,40,18
1909,40,23
1908,40,81
1907,40,27
1906,40,14
1905,40,42
1904,40,20
1903,39,83
1902,39,93
1901,40,29
1900,40,4
1899,40,12
1898,39,93
1897,40,47
1896,40,1
1895,39,87
1894,39,90
1893,40,12
1892,39,95
1891,39,82
1890,40,6
1889,39,95
1888,39,69
1887,39,77
1886,39,62
1885,40,6
1884,39,79
1883,39,83
1882,39,92
1881,39,63
1880,39,72
1879,39,43
1878,39,72
1877,39,75
1876,39,50
1875,39,80
1874,39,66
1873,39,20
1872,39,59
1871,39,51
1870,39,43
1869,39,27
1868,39,54
1867,39,50
1866,39,2
1865,39,27
1864,39,48
1863,39,48
1862,39,25
1861,39,24
1860,39,14
1859,39,37
1858,39,38
1857,39,43
1856,39,25
1855,39,21
1854,39,24
1853,39,3
1852,39,21
1851,39,7
1850,39,5
1849,39,2
1848,39,3
1847,39,1
1846,39,5
1845,38,72
1844,39,6
1843,39,4
1842,38,96
1841,38,98
1840,38,66
1839,38,93
1838,38,87
1837,38,86
1836,38,89
1835,38,83
1834,38,94
1833,38,90
1832,38,65
1831,38,43
1830,38,76
1829,38,21
1828,38,67
1827,38,53
1826,38,60
1825,38,69
1824,38,42
1823,38,51
1822,38,70
1821,38,47
1820,38,51
1819,38,50
1818,38,52
1817,38,27
1816,38,32
1815,38,41
1814,38,31
1813,38,25
1812,38,3
1811,38,23
1810,38,9
1809,38,20
1808,38,13
1807,38,21
1806,38,28
1805,38,20
1804,38,8
1803,38,17
1802,38,10
1801,38,12
1800,38,8
1799,38,0
1798,38,0
1797,37,94
1796,37,82
1795,37,83
1794,37,82
1793,37,70
1792,37,79
1791,37,65
1790,37,80
1789,37,94
1788,37,80
1787,37,92
1786,37,84
1785,37,95
1784,37,75
1783,37,69
1782,37,80
1781,37,67
1780,37,54
1779,37,56
1778,37,55
1777,37,56
1776,37,72
1775,37,44
1774,37,38
1773,37,16
1772,37,0
1771,37,7
1770,37,39
1769,37,33
1768,37,47
1767,37,43
1766,37,47
1765,37,27
1764,37,20
1763,37,37
1762,37,47
1761,37,40
1760,37,10
1759,37,14
1758,37,7
1757,37,48
1756,37,36
1755,37,21
1754,37,3
1753,37,11
1752,36,89
1751,36,77
1750,36,93
1749,36,95
1748,37,14
1747,36,76
1746,36,90
1745,37,2
1744,37,15
1743,36,66
1742,36,80
1741,36,85
1740,36,65
1739,36,52
1738,36,74
1737,36,83
1736,36,66
1735,36,49
1734,36,98
1733,36,66
1732,36,54
1731,36,72
1730,36,77
1729,36,68
1728,36,65
1727,36,64
1726,36,69
1725,36,62
1724,36,59
1723,36,43
1722,36,51
1721,36,55
1720,36,41
1719,36,22
1718,35,67
1717,36,14
1716,36,39
1715,36,10
1714,35,98
1713,36,40
1712,36,27
1711,36,32
1710,36,12
1709,36,27
1708,36,24
1707,36,21
1706,36,5
1705,36,5
1704,35,91
1703,36,5
1702,35,88
1701,36,0
1700,34,84
1699,36,13
1698,35,84
1697,35,72
1696,36,44
1695,36,18
1694,35,73
1693,35,93
1692,35,98
1691,35,82
1690,35,74
1689,36,10
1688,35,65
1687,35,75
1686,35,71
1685,34,44
1684,33,93
1683,35,42
1682,35,82
1681,35,74
1680,35,59
1679,35,71
1678,35,68
1677,35,63
1676,35,60
1675,35,38
1674,35,45
1673,35,54
1672,35,35
1671,35,9
1670,35,37
1669,35,51
1668,35,26
1667,35,53
1666,35,51
1665,35,42
1664,35,30
1663,35,19
1662,35,21
1661,35,19
1660,35,30
1659,35,32
1658,35,31
1657,35,14
1656,35,5
1655,34,69
1654,34,47
1653,41,13
1652,34,87
1651,34,94
1650,34,84
1649,34,82
1648,34,86
1647,34,52
1646,34,56
1645,34,86
1644,34,94
1643,35,0
1642,34,92
1641,34,80
1640,34,81
1639,34,85
1638,34,73
1637,34,48
1636,33,73
1635,34,65
1634,34,71
1633,34,81
1632,34,85
1631,34,73
1630,34,67
1629,34,63
1628,34,36
1627,34,65
1626,34,69
1625,34,37
1624,34,30
1623,34,25
1622,34,35
1621,34,52
1620,34,42
1619,34,47
1618,34,29
1617,34,36
1616,34,29
1615,34,34
1614,34,43
1613,34,28
1612,34,18
1611,34,33
1610,34,19
1609,34,15
1608,34,28
1607,34,15
1606,34,9
1605,34,12
1604,34,7
1603,34,7
1602,34,20
1601,34,15
1600,34,6
1599,34,9
1598,34,8
1597,34,9
1596,33,84
1595,34,5
1594,34,9
1593,33,88
1592,33,98
1591,33,86
1590,33,87
1589,33,85
1588,33,82
1587,33,80
1586,33,84
1585,33,79
1584,33,81
1583,33,74
1582,33,75
1581,33,78
1580,33,60
1579,33,56
1578,33,46
1577,33,24
1576,34,43
1575,33,40
1574,33,58
1573,33,54
1572,33,49
1571,33,37
1570,32,97
1569,33,19
1568,33,44
1567,33,36
1566,33,39
1565,33,17
1564,33,31
1563,33,37
1562,33,20
1561,32,70
1560,32,82
1559,31,52
1558,35,33
1557,33,25
1556,33,3
1555,32,91
1554,33,30
1553,32,98
1552,32,99
1551,32,99
1550,32,78
1549,33,6
1548,32,99
1547,32,97
1546,32,78
1545,32,61
1544,32,68
1543,32,50
1542,32,74
1541,32,35
1540,31,85
1539,30,51
1538,32,70
1537,32,77
1536,32,81
1535,32,65
1534,32,75
1533,32,44
1532,32,63
1531,32,62
1530,32,63
1529,32,69
1528,32,49
1527,32,44
1526,32,65
1525,32,38
1524,32,31
1523,32,9
1522,32,5
1521,32,45
1520,32,39
1519,32,39
1518,32,31
1517,32,23
1516,32,25
1515,32,38
1514,32,44
1513,32,42
1512,32,42
1511,32,23
1510,32,23
1509,32,17
1508,32,7
1507,30,94
1506,32,27
1505,32,29
1504,32,12
1503,32,24
1502,32,15
1501,32,6
1500,31,98
1499,32,31
1498,31,84
1497,31,71
1496,32,44
1495,32,15
1494,32,1
1493,31,95
1492,31,83
1491,31,67
1490,31,74
1489,31,77
1488,31,73
1487,31,73
1486,31,95
1485,31,94
1484,31,86
1483,31,86
1482,31,73
1481,31,81
1480,31,81
1479,31,78
1478,31,85
1477,31,71
1476,31,57
1475,31,61
1474,31,47
1473,31,51
1472,31,38
1471,31,62
1470,31,51
1469,31,55
1468,31,57
1467,31,51
1466,31,34
1465,31,60
1464,31,46
1463,31,46
1462,31,51
1461,31,38
1460,31,32
1459,30,95
1458,30,98
1457,30,87
1456,31,23
1455,31,22
1454,31,18
1453,31,27
1452,31,25
1451,31,37
1450,31,32
1449,31,10
1448,31,30
1447,31,29
1446,31,10
1445,31,8
1444,31,12
1443,31,20
1442,31,15
1441,31,8
1440,31,5
1439,30,99
1438,30,85
1437,30,96
1436,31,12
1435,30,86
1434,30,91
1433,30,86
1432,30,85
1431,30,89
1430,30,83
1429,30,81
1428,30,78
1427,30,77
1426,30,73
1425,30,71
1424,30,55
1423,30,61
1422,30,61
1421,30,64
1420,30,48
1419,30,1
1418,30,59
1417,30,53
1416,30,54
1415,30,52
1414,30,55
1413,30,57
1412,30,43
1411,30,52
1410,30,60
1409,30,53
1408,30,45
1407,30,31
1406,30,13
1405,30,50
1404,30,30
1403,30,23
1402,30,23
1401,30,17
1400,30,18
1399,30,15
1398,30,15
1397,30,14
1396,30,14
1395,30,23
1394,30,27
1393,30,4
1392,30,4
1391,30,5
1390,30,6
1389,30,0
1388,30,3
1387,29,96
1386,29,93
1385,29,97
1384,30,3
1383,29,91
1382,29,89
1381,29,80
1380,29,90
1379,29,82
1378,29,79
1377,29,85
1376,29,84
1375,29,65
1374,29,76
1373,29,73
1372,29,58
1371,29,66
1370,29,65
1369,29,61
1368,29,60
1367,29,69
1366,29,56
1365,29,53
1364,29,54
1363,29,45
1362,29,36
1361,29,57
1360,29,37
1359,29,44
1358,29,44
1357,29,41
1356,29,38
1355,29,32
1354,29,32
1353,29,31
1352,29,29
1351,29,14
1350,29,27
1349,29,21
1348,29,25
1347,29,18
1346,29,26
1345,29,13
1344,29,8
1343,29,3
1342,29,2
1341,29,8
1340,29,3
1339,28,89
1338,28,92
1337,29,2
1336,28,97
1335,29,4
1334,28,91
1333,28,92
1332,28,82
1331,28,82
1330,28,72
1329,28,75
1328,28,69
1327,28,78
1326,28,72
1325,28,71
1324,28,71
1323,28,66
1322,28,67
1321,28,64
1320,28,61
1319,28,55
1318,28,55
1317,28,51
1316,28,56
1315,28,41
1314,28,40
1313,28,43
1312,28,40
1311,28,52
1310,28,47
1309,28,28
1308,28,37
1307,28,32
1306,28,32
1305,28,43
1304,28,23
1303,28,38
1302,28,35
1301,28,17
1300,28,25
1299,28,23
1298,28,7
1297,28,4
1296,28,9
1295,28,19
1294,28,7
1293,27,98
1292,28,0
1291,28,5
1290,28,2
1289,27,86
1288,28,5
1287,28,2
1286,27,96
1285,27,80
1284,27,83
1283,27,95
1282,27,84
1281,27,80
1280,27,72
1279,27,77
1278,27,82
1277,27,72
1276,27,69
1275,27,60
1274,27,62
1273,27,60
1272,27,68
1271,27,60
1270,27,65
1269,27,56
1268,27,38
1267,27,61
1266,27,37
1265,27,54
1264,27,43
1263,27,42
1262,27,36
1261,27,42
1260,27,37
1259,27,31
1258,27,27
1257,27,34
1256,27,31
1255,27,22
1254,27,23
1253,27,32
1252,27,23
1251,27,19
1250,27,28
1249,27,15
1248,27,16
1247,27,2
1246,26,99
1245,27,8
1244,27,1
1243,26,98
1242,26,99
1241,27,4
1240,27,3
1239,26,84
1238,26,86
1237,26,91
1236,26,87
1235,26,72
1234,26,95
1233,26,79
1232,26,80
1231,26,83
1230,26,78
1229,26,84
1228,26,85
1227,26,62
1226,26,90
1225,26,55
1224,26,75
1223,26,62
1222,26,67
1221,26,68
1220,26,48
1219,26,59
1218,26,64
1217,26,68
1216,26,52
1215,26,49
1214,26,65
1213,26,50
1212,26,58
1211,26,32
1210,26,36
1209,26,33
1208,26,28
1207,26,38
1206,26,38
1205,26,23
1204,26,4
1203,26,21
1202,26,35
1201,26,47
1200,26,11
1199,26,17
1198,26,13
1197,26,21
1196,26,27
1195,26,2
1194,25,92
1193,26,14
1192,26,5
1191,26,4
1190,26,10
1189,26,8
1188,26,15
1187,25,71
1186,25,89
1185,25,88
1184,25,91
1183,25,77
1182,25,74
1181,25,89
1180,25,85
1179,25,72
1178,25,67
1177,25,87
1176,25,73
1175,25,86
1174,25,71
1173,25,70
1172,25,46
1171,25,51
1170,25,45
1169,25,58
1168,25,73
1167,25,37
1166,25,38
1165,25,27
1164,25,53
1163,25,24
1162,25,25
1161,25,44
1160,25,45
1159,25,25
1158,25,9
1157,25,28
1156,25,11
1155,25,8
1154,25,12
1153,25,16
1152,25,26
1151,25,20
1150,25,18
1149,25,25
1148,25,12
1147,24,95
1146,24,95
1145,25,1
1144,25,15
1143,25,5
1142,24,88
1141,25,19
1140,25,0
1139,24,94
1138,24,86
1137,25,6
1136,24,66
1135,24,86
1134,24,88
1133,24,70
1132,24,79
1131,24,78
1130,24,43
1129,24,62
1128,24,61
1127,24,32
1126,24,51
1125,24,31
1124,24,55
1123,24,63
1122,24,62
1121,24,29
1120,24,34
1119,24,54
1118,24,41
1117,24,34
1116,24,30
1115,24,18
1114,24,29
1113,24,14
1112,24,38
1111,24,20
1110,24,20
1109,24,13
1108,24,24
1107,23,94
1106,24,19
1105,23,79
1104,24,25
1103,23,89
1102,23,95
1101,23,85
1100,23,68
1099,23,80
1098,23,56
1097,24,6
1096,23,92
1095,23,78
1094,23,63
1093,23,66
1092,23,59
1091,23,74
1090,23,52
1089,23,65
1088,23,51
1087,23,53
1086,23,49
1085,23,73
1084,23,25
1083,23,33
1082,23,35
1081,23,11
1080,23,25
1079,23,8
1078,23,29
1077,23,54
1076,23,2
1075,23,23
1074,23,19
1073,23,21
1072,23,5
1071,23,13
1070,23,16
1069,23,49
1068,22,95
1067,22,94
1066,22,75
1065,23,7
1064,23,4
1063,23,2
1062,23,10
1061,22,79
1060,23,7
1059,22,87
1058,22,67
1057,22,80
1056,22,93
1055,22,81
1054,22,69
1053,23,6
1052,22,69
1051,22,70
1050,22,87
1049,22,54
1048,22,74
1047,22,45
1046,22,75
1045,22,63
1044,22,71
1043,22,88
1042,22,69
1041,22,61
1040,22,36
1039,22,49
1038,22,58
1037,22,44
1036,22,16
1035,22,53
1034,22,22
1033,22,27
1032,22,38
1031,22,32
1030,22,18
1029,22,15
1028,22,21
1027,21,82
1026,22,1
1025,22,7
1024,22,10
1023,22,9
1022,22,18
1021,21,90
1020,21,86
1019,22,1
1018,22,10
1017,21,90
1016,22,10
1015,21,84
1014,21,91
1013,21,71
1012,21,85
1011,21,87
1010,21,95
1009,21,75
1008,21,85
1007,21,79
1006,21,70
1005,21,62
1004,21,51
1003,21,49
1002,21,46
1001,21,53
1000,21,64
999,21,56
998,21,52
997,21,30
996,21,38
995,21,46
994,21,39
993,21,26
992,21,38
991,21,21
990,21,18
989,21,27
988,21,36
987,21,32
986,21,4
985,21,32
984,21,22
983,21,19
982,21,20
981,20,93
980,21,26
979,20,94
978,21,15
977,21,29
976,20,93
975,20,98
974,21,10
973,20,91
972,21,10
971,20,86
970,20,77
969,20,98
968,20,95
967,20,93
966,20,69
965,20,74
964,20,91
963,20,79
962,20,55
961,20,55
960,20,70
959,20,70
958,20,63
957,20,63
956,20,54
955,20,44
954,20,64
953,20,73
952,20,55
951,20,65
950,20,56
949,20,56
948,20,54
947,20,49
946,20,38
945,20,47
944,20,26
943,20,23
942,20,16
941,20,43
940,20,31
939,20,19
938,20,29
937,20,42
936,20,18
935,20,41
934,20,16
933,20,11
932,20,15
931,20,14
930,20,27
929,20,4
928,20,24
927,20,6
926,20,17
925,20,0
924,20,11
923,19,83
922,19,95
921,19,94
920,19,83
919,20,0
918,19,84
917,19,98
916,19,87
915,19,74
914,19,96
913,19,96
912,19,53
911,20,4
910,19,83
909,19,40
908,19,52
907,19,68
906,19,82
905,19,64
904,19,78
903,19,91
902,19,61
901,19,55
900,19,38
899,19,33
898,19,34
897,19,66
896,19,69
895,19,53
894,19,39
893,19,40
892,19,40
891,19,34
890,19,83
889,19,61
888,19,13
887,19,37
886,19,24
885,19,2
884,19,1
883,19,8
882,19,21
881,19,36
880,19,21
879,19,17
878,19,19
877,19,0
876,19,38
875,19,39
874,19,31
873,18,93
872,18,94
871,19,19
870,18,71
869,18,76
868,19,34
867,18,92
866,19,13
865,18,78
864,18,76
863,19,10
862,18,93
861,18,63
860,18,88
859,18,64
858,18,87
857,18,80
856,18,71
855,18,44
854,18,59
853,18,89
852,18,83
851,18,55
850,18,50
849,18,58
848,18,54
847,18,69
846,18,69
845,18,36
844,18,27
843,18,53
842,18,68
841,18,59
840,18,33
839,18,84
838,18,65
837,18,46
836,18,30
835,18,41
834,19,0
833,18,36
832,18,48
831,18,15
830,18,41
829,18,20
828,18,67
827,18,12
826,18,36
825,18,33
824,18,70
823,18,5
822,18,5
821,18,11
820,18,0
819,18,36
818,18,18
817,18,30
816,18,59
815,17,99
814,18,46
813,18,8
812,18,1
811,18,26
810,17,83
809,18,24
808,18,31
807,17,85
806,18,10
805,18,20
804,18,0
803,17,98
802,17,99
801,17,70
800,18,9
799,18,12
798,17,80
797,17,41
796,17,89
795,17,72
794,18,2
793,18,13
792,17,64
791,18,1
790,17,75
789,17,80
788,17,21
787,17,94
786,17,86
785,17,94
784,17,93
783,17,76
782,17,75
781,17,47
780,17,35
779,18,8
778,17,96
777,17,78
776,17,72
775,17,63
774,17,44
773,17,43
772,17,67
771,17,74
770,17,71
769,17,39
768,17,21
767,17,54
766,17,62
765,17,65
764,17,82
763,17,28
762,17,1
761,17,74
760,17,67
759,17,60
758,17,42
757,17,39
756,17,9
755,17,25
754,17,46
753,17,72
752,17,41
751,17,30
750,17,19
749,17,19
748,17,25
747,17,48
746,17,39
745,17,36
744,17,53
743,17,28
742,17,24
741,17,35
740,17,44
739,17,44
738,16,97
737,17,55
736,17,38
735,17,36
734,17,39
733,17,71
732,17,6
731,17,19
730,17,92
729,17,20
728,17,79
727,16,98
726,17,48
725,17,43
724,17,5
723,17,55
722,16,95
721,17,16
720,17,35
719,16,93
718,17,26
717,16,70
716,17,58
715,17,17
714,16,93
713,17,8
712,17,25
711,16,66
710,17,54
709,17,4
708,16,73
707,17,29
706,17,37
705,16,94
704,16,65
703,16,99
702,17,5
701,16,84
700,17,16
699,16,79
698,16,65
697,16,95
696,16,39
695,16,58
694,17,33
693,16,17
692,16,67
691,16,59
690,16,21
689,16,8
688,16,58
687,16,35
686,16,59
685,16,32
684,16,75
683,17,13
682,16,61
681,15,87
680,15,83
679,16,93
678,16,68
677,16,2
676,16,32
675,15,99
674,16,18
673,16,76
672,16,28
671,16,19
670,16,25
669,16,18
668,7,72
667,16,22
666,15,91
665,16,31
664,15,73
663,16,9
662,16,90
661,16,58
660,16,34
659,17,36
658,16,48
657,16,86
656,16,66
655,15,7
654,15,65
653,15,95
652,16,30
651,16,94
650,15,90
649,16,48
648,16,1
647,16,34
646,15,46
645,15,55
644,16,56
643,18,5
642,16,78
641,16,2
640,16,48
639,16,72
638,16,63
637,17,12
636,16,10
635,14,2
634,17,33
633,16,38
632,16,52
631,15,2
630,15,56
629,16,14
628,17,89
627,15,28
626,16,40
625,17,74
624,15,65
623,15,28
622,16,1
621,16,76
620,15,61
619,13,95
618,16,6
617,13,81
616,17,78
615,13,55
614,18,71
613,15,37
612,14,53
611,20,61
610,16,42
609,17,43
608,15,77
607,13,87
606,14,94
605,15,90
604,18,30
603,14,48
602,14,33
601,15,45
600,12,54
