Created as New Dataset;Sample 055 By Administrator Date donderdag, februari 26 2026,
cm-1,%T,comma
4000,96,45
3999,96,42
3998,96,28
3997,96,29
3996,96,24
3995,96,19
3994,96,64
3993,96,32
3992,96,44
3991,96,24
3990,96,27
3989,96,19
3988,96,46
3987,96,39
3986,96,26
3985,96,59
3984,96,88
3983,96,45
3982,96,36
3981,96,23
3980,96,19
3979,96,17
3978,96,53
3977,96,68
3976,96,50
3975,96,37
3974,96,19
3973,96,58
3972,96,53
3971,96,46
3970,96,36
3969,96,25
3968,96,6
3967,96,61
3966,96,44
3965,96,33
3964,96,47
3963,96,43
3962,96,2
3961,96,45
3960,96,48
3959,96,27
3958,96,30
3957,96,29
3956,96,62
3955,96,71
3954,96,43
3953,96,44
3952,96,44
3951,96,43
3950,96,34
3949,96,23
3948,95,84
3947,96,1
3946,96,10
3945,96,49
3944,96,52
3943,95,97
3942,96,19
3941,96,23
3940,96,45
3939,96,51
3938,96,43
3937,96,57
3936,96,50
3935,96,40
3934,96,12
3933,95,93
3932,96,45
3931,96,11
3930,96,24
3929,96,32
3928,96,24
3927,96,49
3926,96,30
3925,96,33
3924,96,30
3923,96,68
3922,96,48
3921,96,4
3920,96,49
3919,96,43
3918,96,1
3917,95,75
3916,96,30
3915,96,59
3914,96,55
3913,96,15
3912,96,63
3911,96,55
3910,96,61
3909,96,41
3908,96,76
3907,96,56
3906,95,93
3905,95,73
3904,94,63
3903,96,17
3902,95,44
3901,95,62
3900,95,85
3899,96,10
3898,96,9
3897,96,13
3896,96,72
3895,96,26
3894,96,23
3893,96,34
3892,95,56
3891,96,1
3890,96,51
3889,96,45
3888,96,20
3887,96,46
3886,96,27
3885,95,88
3884,96,27
3883,96,31
3882,96,16
3881,95,93
3880,95,15
3879,96,30
3878,96,57
3877,96,27
3876,96,47
3875,96,10
3874,95,93
3873,96,40
3872,96,17
3871,95,88
3870,94,93
3869,95,94
3868,96,33
3867,96,46
3866,96,33
3865,95,38
3864,96,20
3863,96,27
3862,95,90
3861,96,37
3860,96,25
3859,96,44
3858,96,31
3857,96,22
3856,96,32
3855,95,60
3854,96,88
3853,94,40
3852,95,9
3851,96,9
3850,96,4
3849,96,50
3848,96,56
3847,96,52
3846,96,45
3845,96,50
3844,95,85
3843,96,41
3842,96,39
3841,96,8
3840,96,22
3839,95,66
3838,95,70
3837,96,33
3836,96,3
3835,96,40
3834,96,26
3833,95,99
3832,96,45
3831,96,61
3830,96,47
3829,96,47
3828,96,45
3827,96,29
3826,96,21
3825,96,19
3824,96,44
3823,96,49
3822,95,57
3821,96,67
3820,95,41
3819,96,12
3818,96,58
3817,96,13
3816,95,93
3815,96,47
3814,96,37
3813,96,38
3812,96,65
3811,96,76
3810,96,44
3809,96,25
3808,95,97
3807,95,71
3806,96,68
3805,96,53
3804,96,19
3803,96,19
3802,95,67
3801,94,58
3800,96,18
3799,96,38
3798,96,32
3797,96,26
3796,96,24
3795,96,54
3794,96,93
3793,96,59
3792,96,53
3791,96,59
3790,96,61
3789,96,63
3788,96,51
3787,96,50
3786,96,30
3785,96,44
3784,96,43
3783,96,55
3782,96,73
3781,96,34
3780,96,7
3779,96,27
3778,96,53
3777,96,36
3776,96,58
3775,96,40
3774,96,72
3773,96,56
3772,96,58
3771,96,27
3770,96,39
3769,96,9
3768,96,24
3767,96,58
3766,96,57
3765,96,23
3764,96,42
3763,96,69
3762,96,66
3761,96,34
3760,96,50
3759,96,30
3758,96,16
3757,96,30
3756,96,34
3755,96,79
3754,96,47
3753,95,73
3752,95,4
3751,96,14
3750,95,11
3749,95,11
3748,95,97
3747,95,96
3746,96,26
3745,97,9
3744,92,83
3743,95,98
3742,95,99
3741,96,33
3740,96,35
3739,96,43
3738,96,12
3737,94,83
3736,94,51
3735,94,66
3734,95,76
3733,96,25
3732,95,45
3731,96,24
3730,96,36
3729,96,32
3728,96,47
3727,96,2
3726,95,58
3725,96,38
3724,96,3
3723,96,58
3722,96,64
3721,96,48
3720,96,37
3719,96,38
3718,96,21
3717,96,65
3716,96,68
3715,96,34
3714,96,15
3713,95,88
3712,96,15
3711,95,68
3710,95,49
3709,96,26
3708,96,51
3707,96,42
3706,96,72
3705,96,43
3704,96,29
3703,96,15
3702,96,46
3701,96,19
3700,96,22
3699,96,58
3698,96,27
3697,96,67
3696,96,30
3695,96,20
3694,96,64
3693,96,43
3692,96,28
3691,95,84
3690,96,24
3689,95,43
3688,95,84
3687,95,93
3686,96,36
3685,96,60
3684,96,53
3683,96,67
3682,96,30
3681,96,27
3680,96,25
3679,96,43
3678,96,4
3677,95,99
3676,95,68
3675,92,85
3674,96,1
3673,96,0
3672,95,96
3671,96,21
3670,95,44
3669,94,91
3668,96,14
3667,95,93
3666,96,14
3665,96,57
3664,96,40
3663,96,60
3662,96,21
3661,96,56
3660,96,47
3659,96,63
3658,96,27
3657,96,2
3656,95,58
3655,96,5
3654,96,43
3653,96,61
3652,95,83
3651,96,74
3650,94,16
3649,94,66
3648,95,48
3647,95,3
3646,95,68
3645,96,5
3644,96,14
3643,95,98
3642,96,39
3641,96,27
3640,96,61
3639,96,16
3638,96,7
3637,96,25
3636,96,64
3635,96,36
3634,95,91
3633,95,79
3632,96,13
3631,95,95
3630,95,50
3629,95,34
3628,95,7
3627,95,81
3626,95,85
3625,96,33
3624,96,61
3623,96,44
3622,96,35
3621,95,81
3620,95,25
3619,95,37
3618,95,42
3617,95,82
3616,96,18
3615,95,91
3614,95,77
3613,95,40
3612,95,81
3611,96,2
3610,95,90
3609,95,3
3608,95,58
3607,96,64
3606,95,96
3605,96,56
3604,95,80
3603,96,22
3602,95,90
3601,96,12
3600,95,99
3599,95,84
3598,96,11
3597,96,6
3596,95,65
3595,95,93
3594,95,69
3593,96,30
3592,96,6
3591,96,30
3590,95,92
3589,95,37
3588,95,24
3587,95,45
3586,95,51
3585,95,88
3584,96,25
3583,96,32
3582,96,46
3581,96,39
3580,96,0
3579,96,0
3578,96,2
3577,96,62
3576,96,20
3575,96,16
3574,96,9
3573,96,10
3572,96,25
3571,96,29
3570,95,90
3569,95,26
3568,95,96
3567,95,36
3566,95,58
3565,95,93
3564,95,75
3563,96,55
3562,96,20
3561,96,2
3560,95,95
3559,96,22
3558,96,30
3557,96,27
3556,96,52
3555,96,27
3554,96,11
3553,96,12
3552,96,15
3551,95,99
3550,96,12
3549,96,3
3548,96,5
3547,95,70
3546,95,9
3545,95,74
3544,95,79
3543,96,17
3542,95,78
3541,96,32
3540,96,28
3539,96,26
3538,96,16
3537,95,97
3536,96,11
3535,95,95
3534,96,6
3533,96,7
3532,96,19
3531,95,83
3530,95,77
3529,96,11
3528,95,79
3527,96,22
3526,96,7
3525,95,92
3524,96,4
3523,96,11
3522,96,3
3521,96,2
3520,96,30
3519,96,15
3518,96,0
3517,96,22
3516,96,18
3515,96,17
3514,96,23
3513,96,25
3512,96,0
3511,96,0
3510,95,88
3509,95,60
3508,96,2
3507,95,70
3506,95,84
3505,96,15
3504,96,22
3503,95,86
3502,96,0
3501,95,91
3500,96,1
3499,95,77
3498,96,0
3497,96,29
3496,96,18
3495,95,95
3494,95,96
3493,96,23
3492,96,13
3491,96,2
3490,95,87
3489,95,87
3488,96,32
3487,96,31
3486,95,72
3485,95,81
3484,95,83
3483,95,80
3482,95,99
3481,95,92
3480,96,22
3479,95,85
3478,95,97
3477,95,74
3476,96,31
3475,96,0
3474,95,99
3473,96,30
3472,96,3
3471,95,76
3470,96,9
3469,95,97
3468,95,91
3467,96,24
3466,95,94
3465,95,84
3464,95,71
3463,95,77
3462,95,78
3461,96,20
3460,95,87
3459,96,13
3458,95,60
3457,95,52
3456,95,99
3455,96,25
3454,95,85
3453,95,60
3452,95,85
3451,96,3
3450,95,85
3449,95,60
3448,95,87
3447,95,62
3446,96,0
3445,95,91
3444,95,78
3443,95,74
3442,95,67
3441,96,14
3440,95,80
3439,95,82
3438,96,32
3437,95,73
3436,95,70
3435,96,14
3434,95,94
3433,95,91
3432,95,75
3431,95,58
3430,95,79
3429,95,89
3428,95,82
3427,95,81
3426,95,75
3425,95,60
3424,95,53
3423,95,59
3422,96,11
3421,95,52
3420,95,49
3419,96,7
3418,95,57
3417,95,55
3416,95,59
3415,95,56
3414,95,57
3413,95,82
3412,95,57
3411,95,61
3410,95,65
3409,95,78
3408,95,73
3407,95,64
3406,95,74
3405,95,82
3404,95,50
3403,95,66
3402,95,72
3401,95,88
3400,95,63
3399,95,64
3398,95,89
3397,95,72
3396,95,79
3395,95,77
3394,95,95
3393,95,53
3392,95,53
3391,95,68
3390,95,53
3389,95,56
3388,95,44
3387,95,74
3386,95,51
3385,95,64
3384,95,50
3383,95,42
3382,95,62
3381,95,77
3380,95,40
3379,95,33
3378,95,63
3377,95,76
3376,95,59
3375,95,71
3374,96,2
3373,95,80
3372,95,69
3371,95,98
3370,95,58
3369,95,69
3368,95,91
3367,95,64
3366,95,66
3365,95,82
3364,96,0
3363,95,73
3362,95,61
3361,95,63
3360,96,8
3359,95,70
3358,95,68
3357,95,76
3356,95,89
3355,96,7
3354,96,8
3353,95,76
3352,95,84
3351,95,65
3350,96,4
3349,95,68
3348,95,65
3347,95,65
3346,95,85
3345,95,65
3344,95,78
3343,95,85
3342,95,81
3341,95,59
3340,95,46
3339,95,97
3338,95,58
3337,95,56
3336,95,89
3335,95,79
3334,95,77
3333,95,79
3332,95,99
3331,95,84
3330,95,66
3329,95,87
3328,95,96
3327,95,94
3326,95,66
3325,95,85
3324,95,87
3323,95,58
3322,95,66
3321,95,53
3320,95,52
3319,95,83
3318,95,74
3317,96,10
3316,96,11
3315,95,63
3314,95,81
3313,95,63
3312,95,91
3311,95,95
3310,95,64
3309,95,98
3308,95,78
3307,95,80
3306,96,7
3305,95,98
3304,95,94
3303,96,20
3302,96,13
3301,95,64
3300,95,81
3299,95,75
3298,95,75
3297,95,71
3296,96,2
3295,95,87
3294,96,1
3293,95,84
3292,95,64
3291,95,76
3290,95,78
3289,96,2
3288,95,84
3287,95,57
3286,95,77
3285,95,77
3284,95,70
3283,96,0
3282,95,57
3281,95,65
3280,95,65
3279,95,91
3278,95,76
3277,95,52
3276,95,93
3275,95,83
3274,96,7
3273,95,81
3272,95,76
3271,95,77
3270,95,53
3269,95,76
3268,95,77
3267,95,70
3266,95,50
3265,95,70
3264,95,91
3263,95,51
3262,95,78
3261,95,83
3260,95,85
3259,95,71
3258,95,74
3257,95,86
3256,95,75
3255,95,74
3254,95,66
3253,95,61
3252,95,84
3251,95,75
3250,95,76
3249,95,78
3248,95,59
3247,95,88
3246,95,77
3245,95,95
3244,95,94
3243,95,66
3242,95,71
3241,95,70
3240,95,69
3239,95,90
3238,95,86
3237,95,65
3236,95,70
3235,95,92
3234,95,68
3233,95,93
3232,95,89
3231,95,60
3230,95,85
3229,95,50
3228,95,50
3227,95,86
3226,96,1
3225,95,67
3224,95,64
3223,95,80
3222,96,9
3221,95,53
3220,95,83
3219,95,85
3218,95,59
3217,95,63
3216,95,74
3215,95,55
3214,95,84
3213,96,18
3212,95,74
3211,96,4
3210,95,85
3209,95,69
3208,95,35
3207,95,47
3206,95,91
3205,95,96
3204,95,84
3203,95,82
3202,95,86
3201,95,81
3200,96,0
3199,95,81
3198,95,86
3197,95,79
3196,95,97
3195,95,66
3194,95,66
3193,95,92
3192,95,83
3191,95,86
3190,95,75
3189,95,89
3188,95,67
3187,95,82
3186,95,80
3185,95,79
3184,95,61
3183,95,78
3182,95,81
3181,96,14
3180,95,82
3179,95,74
3178,95,71
3177,95,62
3176,95,81
3175,95,81
3174,95,78
3173,95,81
3172,95,90
3171,95,64
3170,95,94
3169,95,84
3168,95,82
3167,96,4
3166,96,13
3165,95,94
3164,96,8
3163,96,9
3162,96,3
3161,96,23
3160,96,3
3159,96,7
3158,95,99
3157,96,2
3156,95,84
3155,95,87
3154,96,11
3153,95,92
3152,96,3
3151,95,80
3150,96,1
3149,95,76
3148,96,2
3147,95,90
3146,96,15
3145,96,7
3144,96,12
3143,95,90
3142,96,3
3141,95,95
3140,95,86
3139,96,7
3138,96,0
3137,95,85
3136,96,15
3135,96,13
3134,96,0
3133,96,18
3132,96,9
3131,96,16
3130,96,19
3129,95,85
3128,96,21
3127,95,95
3126,96,4
3125,96,19
3124,96,20
3123,96,1
3122,96,2
3121,95,90
3120,96,14
3119,96,38
3118,96,31
3117,96,10
3116,96,23
3115,96,18
3114,96,22
3113,96,27
3112,96,25
3111,96,35
3110,96,16
3109,96,5
3108,96,16
3107,96,38
3106,96,2
3105,96,1
3104,96,29
3103,96,42
3102,96,28
3101,96,18
3100,96,26
3099,96,51
3098,96,4
3097,96,34
3096,96,55
3095,96,37
3094,96,28
3093,96,48
3092,96,33
3091,96,35
3090,96,35
3089,96,27
3088,96,44
3087,96,21
3086,96,36
3085,96,50
3084,96,45
3083,96,46
3082,96,45
3081,96,42
3080,96,35
3079,96,38
3078,96,50
3077,96,45
3076,96,47
3075,96,33
3074,96,73
3073,96,63
3072,96,24
3071,96,64
3070,96,39
3069,96,32
3068,96,45
3067,96,52
3066,96,38
3065,96,45
3064,96,58
3063,96,52
3062,96,59
3061,96,55
3060,96,61
3059,96,57
3058,96,32
3057,96,70
3056,96,65
3055,96,74
3054,96,52
3053,96,60
3052,96,49
3051,96,72
3050,96,60
3049,96,61
3048,96,79
3047,96,53
3046,96,50
3045,96,58
3044,96,48
3043,96,49
3042,96,62
3041,96,86
3040,96,54
3039,96,74
3038,96,48
3037,96,68
3036,96,71
3035,96,72
3034,96,58
3033,96,65
3032,96,63
3031,96,57
3030,97,2
3029,96,75
3028,96,65
3027,96,70
3026,96,59
3025,96,72
3024,96,86
3023,96,72
3022,96,46
3021,96,61
3020,96,75
3019,96,91
3018,96,98
3017,96,91
3016,96,89
3015,96,89
3014,96,85
3013,96,66
3012,96,78
3011,96,79
3010,96,67
3009,96,96
3008,96,67
3007,96,84
3006,96,84
3005,96,82
3004,96,68
3003,96,88
3002,96,85
3001,96,96
3000,96,70
2999,97,5
2998,96,93
2997,96,88
2996,96,92
2995,96,84
2994,96,96
2993,96,85
2992,96,86
2991,97,3
2990,97,1
2989,96,69
2988,96,87
2987,96,90
2986,96,86
2985,97,9
2984,96,85
2983,96,96
2982,96,85
2981,97,4
2980,96,87
2979,96,83
2978,97,1
2977,96,99
2976,96,90
2975,96,81
2974,96,88
2973,96,99
2972,96,85
2971,97,6
2970,97,12
2969,96,95
2968,96,97
2967,96,89
2966,96,84
2965,97,11
2964,96,84
2963,96,99
2962,97,1
2961,96,79
2960,97,26
2959,97,7
2958,97,15
2957,96,95
2956,97,12
2955,97,5
2954,96,91
2953,97,7
2952,97,4
2951,97,11
2950,97,21
2949,97,15
2948,97,2
2947,97,36
2946,97,6
2945,96,92
2944,97,32
2943,97,18
2942,97,10
2941,97,9
2940,97,20
2939,97,2
2938,97,4
2937,97,0
2936,97,19
2935,97,11
2934,97,23
2933,97,4
2932,96,96
2931,97,28
2930,97,24
2929,97,9
2928,97,3
2927,97,34
2926,97,14
2925,97,11
2924,97,25
2923,97,7
2922,97,5
2921,97,21
2920,97,13
2919,97,22
2918,97,19
2917,97,19
2916,97,6
2915,97,9
2914,97,31
2913,97,3
2912,97,27
2911,97,26
2910,97,13
2909,97,29
2908,97,20
2907,97,19
2906,97,11
2905,97,39
2904,97,32
2903,97,12
2902,97,29
2901,97,18
2900,97,35
2899,97,17
2898,97,4
2897,97,21
2896,97,16
2895,97,31
2894,97,17
2893,97,9
2892,97,38
2891,97,26
2890,97,18
2889,97,8
2888,97,31
2887,97,7
2886,97,25
2885,97,40
2884,97,19
2883,97,32
2882,97,54
2881,97,16
2880,97,14
2879,97,37
2878,97,29
2877,97,27
2876,97,45
2875,97,35
2874,97,18
2873,97,11
2872,97,29
2871,97,33
2870,97,17
2869,97,26
2868,97,31
2867,97,17
2866,97,54
2865,97,21
2864,97,20
2863,97,46
2862,97,49
2861,97,46
2860,97,34
2859,97,29
2858,97,54
2857,97,17
2856,97,29
2855,97,6
2854,97,31
2853,97,40
2852,97,14
2851,97,46
2850,97,42
2849,97,43
2848,97,32
2847,97,36
2846,97,37
2845,97,16
2844,97,34
2843,97,30
2842,97,33
2841,97,38
2840,97,38
2839,97,43
2838,97,41
2837,97,47
2836,97,37
2835,97,25
2834,97,33
2833,97,42
2832,97,42
2831,97,35
2830,97,40
2829,97,37
2828,97,52
2827,97,44
2826,97,32
2825,97,35
2824,97,35
2823,97,32
2822,97,40
2821,97,38
2820,97,55
2819,97,40
2818,97,33
2817,97,46
2816,97,41
2815,97,29
2814,97,42
2813,97,42
2812,97,41
2811,97,52
2810,97,27
2809,97,48
2808,97,28
2807,97,46
2806,97,39
2805,97,41
2804,97,52
2803,97,42
2802,97,37
2801,97,35
2800,97,46
2799,97,47
2798,97,46
2797,97,27
2796,97,43
2795,97,53
2794,97,38
2793,97,40
2792,97,44
2791,97,42
2790,97,36
2789,97,47
2788,97,57
2787,97,60
2786,97,33
2785,97,45
2784,97,44
2783,97,35
2782,97,51
2781,97,18
2780,97,21
2779,97,39
2778,97,57
2777,97,42
2776,97,45
2775,97,43
2774,97,55
2773,97,52
2772,97,43
2771,97,29
2770,97,37
2769,97,51
2768,97,48
2767,97,38
2766,97,37
2765,97,59
2764,97,49
2763,97,31
2762,97,52
2761,97,44
2760,97,41
2759,97,32
2758,97,47
2757,97,31
2756,97,59
2755,97,60
2754,97,40
2753,97,35
2752,97,50
2751,97,61
2750,97,39
2749,97,33
2748,97,49
2747,97,55
2746,97,57
2745,97,57
2744,97,44
2743,97,47
2742,97,67
2741,97,58
2740,97,44
2739,97,70
2738,97,54
2737,97,47
2736,97,37
2735,97,46
2734,97,45
2733,97,44
2732,97,31
2731,97,37
2730,97,58
2729,97,31
2728,97,53
2727,97,43
2726,97,45
2725,97,45
2724,97,55
2723,97,46
2722,97,42
2721,97,42
2720,97,59
2719,97,40
2718,97,50
2717,97,51
2716,97,51
2715,97,51
2714,97,58
2713,97,65
2712,97,55
2711,97,70
2710,97,51
2709,97,76
2708,97,54
2707,97,44
2706,97,48
2705,97,46
2704,97,58
2703,97,41
2702,97,57
2701,97,39
2700,97,40
2699,97,54
2698,97,48
2697,97,37
2696,97,60
2695,97,51
2694,97,38
2693,97,67
2692,97,70
2691,97,43
2690,97,65
2689,97,42
2688,97,49
2687,97,46
2686,97,56
2685,97,54
2684,97,42
2683,97,46
2682,97,49
2681,97,47
2680,97,66
2679,97,53
2678,97,58
2677,97,42
2676,97,58
2675,97,38
2674,97,44
2673,97,54
2672,97,32
2671,97,32
2670,97,47
2669,97,49
2668,97,36
2667,97,41
2666,97,49
2665,97,51
2664,97,47
2663,97,50
2662,97,59
2661,97,33
2660,97,51
2659,97,35
2658,97,64
2657,97,45
2656,97,38
2655,97,40
2654,97,36
2653,97,46
2652,97,49
2651,97,34
2650,97,51
2649,97,38
2648,97,33
2647,97,25
2646,97,49
2645,97,28
2644,97,43
2643,97,25
2642,97,54
2641,97,46
2640,97,47
2639,97,29
2638,97,39
2637,97,49
2636,97,47
2635,97,48
2634,97,37
2633,97,33
2632,97,49
2631,97,36
2630,97,57
2629,97,46
2628,97,38
2627,97,42
2626,97,47
2625,97,54
2624,97,41
2623,97,5
2622,97,16
2621,97,34
2620,97,16
2619,97,47
2618,97,68
2617,97,55
2616,97,17
2615,97,56
2614,97,64
2613,97,41
2612,97,32
2611,97,24
2610,97,36
2609,97,43
2608,97,48
2607,97,67
2606,97,68
2605,97,47
2604,97,39
2603,97,18
2602,97,26
2601,97,40
2600,97,41
2599,97,49
2598,97,38
2597,97,38
2596,97,47
2595,97,25
2594,97,39
2593,97,37
2592,97,68
2591,97,18
2590,97,46
2589,97,51
2588,97,48
2587,97,50
2586,97,23
2585,97,58
2584,97,56
2583,97,43
2582,97,37
2581,97,47
2580,97,78
2579,97,55
2578,97,19
2577,97,61
2576,97,35
2575,97,33
2574,97,38
2573,97,70
2572,97,37
2571,97,58
2570,97,39
2569,97,64
2568,97,84
2567,97,39
2566,97,52
2565,97,29
2564,97,46
2563,97,43
2562,97,40
2561,97,51
2560,97,14
2559,97,20
2558,97,54
2557,97,59
2556,97,62
2555,97,63
2554,97,60
2553,97,51
2552,97,33
2551,97,31
2550,97,52
2549,97,68
2548,97,63
2547,97,28
2546,97,77
2545,97,10
2544,97,10
2543,97,37
2542,97,38
2541,97,55
2540,97,57
2539,97,24
2538,97,49
2537,97,46
2536,97,50
2535,97,29
2534,97,56
2533,97,53
2532,97,50
2531,97,31
2530,97,59
2529,97,55
2528,97,60
2527,97,50
2526,97,52
2525,97,32
2524,97,24
2523,97,50
2522,97,69
2521,97,51
2520,97,35
2519,97,45
2518,97,32
2517,97,55
2516,97,24
2515,97,71
2514,97,52
2513,97,57
2512,97,83
2511,97,62
2510,97,61
2509,97,63
2508,97,62
2507,97,65
2506,97,58
2505,97,63
2504,97,56
2503,97,67
2502,97,57
2501,97,48
2500,97,87
2499,97,60
2498,97,70
2497,97,69
2496,97,67
2495,97,30
2494,97,41
2493,97,62
2492,97,71
2491,97,81
2490,97,87
2489,97,46
2488,97,88
2487,97,73
2486,97,71
2485,97,81
2484,97,51
2483,97,43
2482,97,68
2481,97,67
2480,97,73
2479,97,82
2478,97,66
2477,97,75
2476,97,58
2475,97,72
2474,97,73
2473,97,62
2472,97,63
2471,97,89
2470,97,76
2469,97,67
2468,97,62
2467,97,66
2466,97,63
2465,97,58
2464,97,66
2463,97,78
2462,97,96
2461,97,91
2460,97,55
2459,97,72
2458,97,40
2457,97,72
2456,97,90
2455,97,84
2454,97,77
2453,97,78
2452,97,59
2451,97,73
2450,97,74
2449,97,70
2448,97,76
2447,97,64
2446,97,93
2445,97,71
2444,97,67
2443,97,70
2442,97,58
2441,97,62
2440,97,77
2439,97,77
2438,97,61
2437,97,91
2436,97,75
2435,97,78
2434,97,81
2433,97,71
2432,97,96
2431,97,74
2430,98,0
2429,97,93
2428,97,46
2427,97,86
2426,97,65
2425,97,63
2424,97,77
2423,97,97
2422,98,2
2421,97,76
2420,97,96
2419,97,59
2418,97,90
2417,97,87
2416,97,74
2415,97,91
2414,98,6
2413,97,81
2412,97,83
2411,97,94
2410,98,1
2409,97,63
2408,97,79
2407,97,76
2406,97,87
2405,97,98
2404,98,2
2403,97,94
2402,97,72
2401,97,94
2400,97,62
2399,97,94
2398,97,80
2397,97,82
2396,97,91
2395,98,1
2394,97,83
2393,97,74
2392,98,3
2391,97,85
2390,98,6
2389,97,78
2388,97,78
2387,97,59
2386,97,65
2385,98,16
2384,98,21
2383,97,68
2382,97,57
2381,97,81
2380,97,53
2379,97,83
2378,97,25
2377,97,53
2376,97,15
2375,97,49
2374,97,34
2373,97,10
2372,96,99
2371,97,57
2370,97,35
2369,98,7
2368,96,53
2367,97,20
2366,97,76
2365,97,14
2364,96,67
2363,97,22
2362,97,58
2361,97,20
2360,97,38
2359,96,93
2358,97,77
2357,96,98
2356,96,90
2355,97,31
2354,97,25
2353,97,37
2352,97,4
2351,97,7
2350,97,44
2349,97,45
2348,97,4
2347,97,39
2346,97,6
2345,97,60
2344,97,79
2343,97,31
2342,96,85
2341,95,98
2340,97,38
2339,97,25
2338,97,4
2337,97,35
2336,97,24
2335,97,65
2334,97,93
2333,97,83
2332,97,55
2331,96,22
2330,97,46
2329,97,15
2328,97,69
2327,96,75
2326,97,20
2325,97,1
2324,97,67
2323,96,98
2322,97,34
2321,97,61
2320,97,63
2319,97,75
2318,97,60
2317,97,12
2316,97,82
2315,97,58
2314,97,52
2313,97,52
2312,97,81
2311,97,85
2310,97,46
2309,97,39
2308,97,73
2307,97,65
2306,98,4
2305,97,83
2304,97,85
2303,97,74
2302,98,20
2301,97,73
2300,97,79
2299,97,82
2298,97,59
2297,98,0
2296,97,50
2295,97,88
2294,98,6
2293,97,73
2292,97,60
2291,97,80
2290,97,89
2289,97,85
2288,98,0
2287,98,48
2286,98,6
2285,97,67
2284,97,79
2283,97,67
2282,98,9
2281,97,84
2280,97,52
2279,97,71
2278,97,72
2277,98,17
2276,97,63
2275,98,5
2274,98,16
2273,97,73
2272,97,59
2271,97,74
2270,97,81
2269,98,32
2268,98,4
2267,97,81
2266,97,70
2265,98,11
2264,97,95
2263,98,22
2262,98,32
2261,98,10
2260,97,85
2259,97,60
2258,97,77
2257,98,16
2256,97,76
2255,97,80
2254,98,15
2253,97,67
2252,98,35
2251,97,91
2250,97,94
2249,97,84
2248,98,24
2247,98,20
2246,97,87
2245,98,25
2244,97,78
2243,97,80
2242,97,91
2241,97,87
2240,98,31
2239,98,27
2238,97,77
2237,98,7
2236,97,93
2235,98,4
2234,97,96
2233,98,26
2232,97,97
2231,98,60
2230,98,44
2229,97,66
2228,98,7
2227,98,16
2226,98,8
2225,97,81
2224,97,73
2223,98,3
2222,97,76
2221,98,20
2220,97,84
2219,98,32
2218,98,34
2217,98,31
2216,98,23
2215,98,42
2214,98,54
2213,98,2
2212,97,89
2211,97,74
2210,97,96
2209,98,35
2208,98,56
2207,98,30
2206,97,85
2205,98,44
2204,97,83
2203,97,85
2202,97,88
2201,97,73
2200,97,78
2199,98,75
2198,98,16
2197,98,6
2196,97,75
2195,97,91
2194,98,4
2193,97,93
2192,98,55
2191,98,35
2190,97,39
2189,98,39
2188,97,79
2187,97,48
2186,98,82
2185,98,3
2184,97,99
2183,98,22
2182,98,56
2181,97,56
2180,98,47
2179,98,3
2178,98,51
2177,97,98
2176,98,9
2175,97,55
2174,98,34
2173,98,12
2172,98,3
2171,99,10
2170,98,68
2169,97,50
2168,97,73
2167,97,56
2166,97,97
2165,97,61
2164,97,42
2163,98,22
2162,97,87
2161,98,1
2160,98,7
2159,98,0
2158,98,58
2157,97,80
2156,98,49
2155,98,38
2154,98,14
2153,98,5
2152,98,3
2151,98,53
2150,98,6
2149,98,91
2148,98,58
2147,98,54
2146,98,20
2145,98,62
2144,97,87
2143,97,94
2142,98,83
2141,98,51
2140,98,23
2139,97,93
2138,97,96
2137,97,43
2136,98,38
2135,98,1
2134,98,6
2133,97,72
2132,97,79
2131,98,55
2130,97,82
2129,98,60
2128,97,79
2127,98,5
2126,98,17
2125,97,75
2124,98,39
2123,98,30
2122,98,42
2121,97,95
2120,98,17
2119,97,95
2118,98,16
2117,98,18
2116,98,14
2115,98,7
2114,98,12
2113,98,19
2112,98,23
2111,98,18
2110,98,19
2109,98,48
2108,97,81
2107,98,4
2106,97,78
2105,98,20
2104,98,23
2103,97,90
2102,98,36
2101,98,33
2100,98,43
2099,98,18
2098,98,43
2097,98,37
2096,98,17
2095,98,13
2094,98,49
2093,98,2
2092,98,19
2091,98,6
2090,98,37
2089,98,0
2088,97,90
2087,97,63
2086,98,41
2085,97,99
2084,98,26
2083,97,96
2082,98,26
2081,97,86
2080,97,93
2079,98,23
2078,98,10
2077,97,94
2076,97,85
2075,98,21
2074,97,75
2073,98,6
2072,97,95
2071,98,39
2070,98,11
2069,97,94
2068,98,18
2067,98,11
2066,97,64
2065,98,8
2064,98,24
2063,97,71
2062,98,36
2061,98,6
2060,98,13
2059,98,6
2058,97,87
2057,97,81
2056,98,41
2055,98,6
2054,98,44
2053,97,93
2052,97,59
2051,98,18
2050,97,99
2049,98,5
2048,98,64
2047,98,26
2046,98,41
2045,98,45
2044,97,49
2043,98,56
2042,98,14
2041,98,18
2040,98,42
2039,97,85
2038,97,82
2037,98,22
2036,97,91
2035,98,39
2034,98,63
2033,97,69
2032,98,47
2031,97,66
2030,98,24
2029,98,10
2028,98,32
2027,98,8
2026,97,73
2025,97,57
2024,98,25
2023,98,15
2022,98,29
2021,97,94
2020,98,97
2019,98,24
2018,98,2
2017,98,12
2016,98,14
2015,97,79
2014,98,49
2013,98,41
2012,98,80
2011,98,62
2010,97,59
2009,98,63
2008,97,86
2007,97,30
2006,98,53
2005,98,94
2004,97,86
2003,98,22
2002,98,88
2001,97,89
2000,97,60
1999,98,89
1998,98,10
1997,98,58
1996,98,3
1995,98,28
1994,98,56
1993,98,19
1992,98,13
1991,97,95
1990,97,83
1989,98,36
1988,98,46
1987,98,3
1986,98,4
1985,98,1
1984,98,40
1983,98,50
1982,97,41
1981,98,19
1980,98,40
1979,97,71
1978,97,72
1977,98,29
1976,98,29
1975,98,96
1974,97,82
1973,98,35
1972,98,85
1971,98,37
1970,98,29
1969,98,37
1968,98,18
1967,98,78
1966,97,95
1965,98,34
1964,98,32
1963,98,8
1962,98,72
1961,97,36
1960,98,49
1959,98,26
1958,97,21
1957,98,81
1956,98,49
1955,97,85
1954,98,54
1953,98,38
1952,97,95
1951,98,28
1950,98,63
1949,98,14
1948,97,80
1947,98,50
1946,98,4
1945,98,40
1944,98,8
1943,97,54
1942,98,86
1941,98,45
1940,98,36
1939,98,43
1938,98,54
1937,98,19
1936,97,89
1935,97,73
1934,98,16
1933,98,11
1932,98,16
1931,98,69
1930,98,52
1929,98,30
1928,98,10
1927,97,84
1926,99,8
1925,98,26
1924,98,32
1923,98,51
1922,98,39
1921,98,2
1920,98,25
1919,97,83
1918,98,67
1917,98,24
1916,98,54
1915,98,15
1914,98,17
1913,98,27
1912,98,39
1911,98,55
1910,98,53
1909,98,35
1908,98,49
1907,98,40
1906,98,21
1905,98,48
1904,98,24
1903,98,6
1902,98,13
1901,98,47
1900,98,3
1899,98,61
1898,98,29
1897,98,6
1896,98,13
1895,98,22
1894,98,36
1893,98,36
1892,98,27
1891,98,36
1890,98,26
1889,98,57
1888,98,26
1887,98,38
1886,98,25
1885,98,28
1884,98,20
1883,98,19
1882,98,45
1881,98,14
1880,98,34
1879,98,34
1878,98,27
1877,98,33
1876,98,8
1875,98,33
1874,98,18
1873,98,34
1872,98,40
1871,98,29
1870,97,90
1869,98,37
1868,98,53
1867,98,32
1866,98,50
1865,97,99
1864,98,5
1863,98,31
1862,98,24
1861,98,28
1860,98,15
1859,98,47
1858,98,54
1857,98,35
1856,98,43
1855,98,31
1854,98,44
1853,98,40
1852,98,31
1851,98,14
1850,98,21
1849,98,22
1848,97,99
1847,98,22
1846,98,11
1845,98,0
1844,98,89
1843,98,57
1842,98,19
1841,98,30
1840,98,25
1839,98,30
1838,98,31
1837,98,63
1836,98,24
1835,98,36
1834,98,46
1833,98,25
1832,98,17
1831,97,90
1830,98,37
1829,98,39
1828,98,1
1827,98,5
1826,97,84
1825,98,44
1824,98,13
1823,98,15
1822,98,19
1821,98,40
1820,98,8
1819,98,10
1818,98,29
1817,98,26
1816,98,11
1815,98,41
1814,98,28
1813,98,17
1812,98,8
1811,98,17
1810,98,47
1809,98,44
1808,98,26
1807,98,24
1806,98,36
1805,98,14
1804,98,30
1803,98,7
1802,98,37
1801,98,60
1800,98,3
1799,98,51
1798,98,4
1797,98,13
1796,98,33
1795,98,14
1794,98,25
1793,97,71
1792,98,47
1791,98,24
1790,98,20
1789,98,26
1788,98,38
1787,98,48
1786,98,20
1785,98,69
1784,98,27
1783,98,21
1782,98,7
1781,98,25
1780,98,40
1779,98,28
1778,98,41
1777,98,37
1776,98,20
1775,98,32
1774,98,22
1773,98,57
1772,97,96
1771,98,56
1770,98,20
1769,98,17
1768,98,95
1767,98,24
1766,98,14
1765,98,18
1764,98,20
1763,98,17
1762,98,32
1761,98,47
1760,98,24
1759,98,23
1758,98,13
1757,98,33
1756,98,48
1755,98,42
1754,98,21
1753,98,26
1752,97,86
1751,99,68
1750,98,19
1749,98,28
1748,98,26
1747,98,21
1746,98,38
1745,98,17
1744,98,10
1743,98,60
1742,98,22
1741,98,13
1740,98,73
1739,98,51
1738,98,14
1737,98,34
1736,98,8
1735,98,13
1734,99,18
1733,98,25
1732,98,5
1731,98,12
1730,98,19
1729,98,46
1728,98,27
1727,98,22
1726,98,9
1725,98,35
1724,98,31
1723,98,32
1722,98,16
1721,98,21
1720,97,98
1719,97,71
1718,97,92
1717,98,98
1716,97,93
1715,98,36
1714,98,21
1713,97,96
1712,98,2
1711,97,91
1710,98,27
1709,98,5
1708,97,91
1707,98,11
1706,98,54
1705,97,54
1704,98,35
1703,97,60
1702,91,43
1701,71,82
1700,65,86
1699,83,18
1698,96,24
1697,97,38
1696,96,96
1695,98,41
1694,97,89
1693,97,73
1692,97,94
1691,97,61
1690,97,80
1689,97,38
1688,97,61
1687,97,49
1686,97,42
1685,96,10
1684,97,75
1683,97,58
1682,97,55
1681,97,31
1680,97,74
1679,97,63
1678,97,54
1677,97,46
1676,97,34
1675,97,99
1674,97,43
1673,97,29
1672,97,26
1671,97,46
1670,97,24
1669,98,4
1668,97,68
1667,97,53
1666,97,52
1665,97,45
1664,97,46
1663,97,88
1662,97,81
1661,97,57
1660,97,58
1659,97,64
1658,97,56
1657,97,60
1656,97,49
1655,96,91
1654,97,11
1653,83,57
1652,99,14
1651,97,79
1650,97,42
1649,97,55
1648,97,76
1647,97,65
1646,98,2
1645,97,77
1644,97,47
1643,97,74
1642,97,72
1641,97,40
1640,97,64
1639,97,62
1638,97,48
1637,97,74
1636,97,3
1635,98,12
1634,97,69
1633,97,72
1632,97,56
1631,97,39
1630,97,65
1629,97,49
1628,97,42
1627,97,72
1626,97,44
1625,97,56
1624,97,27
1623,97,76
1622,97,53
1621,97,60
1620,97,59
1619,97,83
1618,97,24
1617,97,77
1616,98,36
1615,97,93
1614,97,77
1613,97,71
1612,97,85
1611,97,84
1610,97,59
1609,97,97
1608,97,74
1607,97,86
1606,97,92
1605,97,64
1604,97,74
1603,98,4
1602,98,2
1601,97,86
1600,97,91
1599,97,97
1598,98,7
1597,97,90
1596,98,3
1595,97,93
1594,98,4
1593,97,80
1592,97,90
1591,97,78
1590,97,83
1589,97,88
1588,97,89
1587,97,77
1586,97,77
1585,97,69
1584,97,72
1583,97,63
1582,97,69
1581,97,64
1580,97,33
1579,97,43
1578,97,15
1577,97,10
1576,99,27
1575,97,22
1574,97,23
1573,97,30
1572,97,16
1571,97,8
1570,97,1
1569,97,50
1568,96,95
1567,96,98
1566,96,69
1565,96,75
1564,96,95
1563,96,61
1562,96,48
1561,96,37
1560,96,96
1559,95,50
1558,98,59
1557,97,19
1556,96,38
1555,95,79
1554,97,4
1553,96,14
1552,96,27
1551,95,99
1550,95,87
1549,95,95
1548,95,80
1547,95,72
1546,95,32
1545,95,84
1544,95,29
1543,95,15
1542,95,84
1541,94,97
1540,96,72
1539,96,21
1538,95,40
1537,94,94
1536,94,65
1535,94,67
1534,94,18
1533,95,13
1532,94,52
1531,94,45
1530,94,5
1529,93,85
1528,93,95
1527,94,13
1526,93,13
1525,94,1
1524,93,54
1523,93,1
1522,93,4
1521,93,8
1520,93,58
1519,93,11
1518,92,69
1517,93,10
1516,92,78
1515,92,75
1514,92,85
1513,92,35
1512,92,88
1511,92,40
1510,92,20
1509,91,78
1508,91,47
1507,92,85
1506,93,86
1505,92,73
1504,91,96
1503,91,79
1502,91,67
1501,91,64
1500,91,62
1499,91,39
1498,91,39
1497,90,96
1496,91,83
1495,91,12
1494,90,95
1493,91,2
1492,90,91
1491,90,74
1490,90,55
1489,90,95
1488,90,48
1487,90,79
1486,90,47
1485,90,38
1484,90,43
1483,90,41
1482,90,3
1481,90,27
1480,90,10
1479,90,18
1478,90,8
1477,89,75
1476,90,21
1475,89,93
1474,89,44
1473,89,74
1472,90,21
1471,89,97
1470,89,78
1469,89,58
1468,89,69
1467,89,71
1466,89,37
1465,89,38
1464,89,57
1463,89,38
1462,89,32
1461,89,29
1460,89,19
1459,89,15
1458,89,69
1457,88,71
1456,89,8
1455,89,23
1454,89,42
1453,89,39
1452,89,26
1451,89,36
1450,89,41
1449,89,31
1448,89,78
1447,89,63
1446,89,47
1445,89,53
1444,89,58
1443,89,56
1442,89,76
1441,89,84
1440,89,90
1439,89,99
1438,89,61
1437,89,61
1436,90,46
1435,90,32
1434,90,33
1433,90,61
1432,90,75
1431,90,65
1430,91,1
1429,91,3
1428,91,8
1427,91,9
1426,91,27
1425,91,14
1424,91,9
1423,91,59
1422,91,47
1421,91,57
1420,91,45
1419,92,62
1418,91,56
1417,91,93
1416,91,85
1415,91,80
1414,91,96
1413,91,99
1412,91,99
1411,92,27
1410,92,33
1409,92,43
1408,92,42
1407,92,54
1406,92,60
1405,92,73
1404,92,78
1403,92,69
1402,92,92
1401,92,85
1400,92,83
1399,93,65
1398,93,14
1397,93,25
1396,93,21
1395,93,15
1394,93,90
1393,93,57
1392,93,44
1391,93,49
1390,93,68
1389,93,80
1388,93,59
1387,93,97
1386,93,89
1385,94,6
1384,94,7
1383,94,17
1382,94,41
1381,94,39
1380,94,23
1379,94,28
1378,94,32
1377,94,38
1376,94,41
1375,94,69
1374,94,47
1373,94,60
1372,94,67
1371,94,68
1370,94,79
1369,94,73
1368,95,0
1367,95,3
1366,94,85
1365,95,3
1364,94,79
1363,95,3
1362,95,9
1361,95,23
1360,95,29
1359,95,25
1358,95,35
1357,95,28
1356,95,23
1355,95,37
1354,95,48
1353,95,48
1352,95,63
1351,95,49
1350,95,48
1349,95,63
1348,95,62
1347,95,55
1346,95,62
1345,95,74
1344,95,89
1343,95,81
1342,95,80
1341,95,50
1340,95,84
1339,95,80
1338,95,86
1337,95,83
1336,96,3
1335,96,17
1334,95,92
1333,96,3
1332,95,99
1331,96,13
1330,96,6
1329,96,32
1328,96,15
1327,96,8
1326,96,33
1325,96,19
1324,96,21
1323,96,21
1322,96,26
1321,96,11
1320,96,36
1319,96,33
1318,96,30
1317,96,50
1316,96,47
1315,96,35
1314,96,49
1313,96,34
1312,96,53
1311,96,51
1310,96,52
1309,96,54
1308,96,56
1307,96,55
1306,96,60
1305,96,63
1304,96,58
1303,96,66
1302,96,76
1301,96,54
1300,96,66
1299,96,79
1298,96,55
1297,96,73
1296,96,70
1295,96,63
1294,96,99
1293,96,75
1292,96,79
1291,96,83
1290,96,91
1289,96,92
1288,96,86
1287,96,73
1286,96,87
1285,97,1
1284,96,93
1283,97,1
1282,96,96
1281,97,1
1280,96,99
1279,96,94
1278,96,86
1277,96,89
1276,96,85
1275,97,6
1274,96,89
1273,96,85
1272,96,94
1271,96,96
1270,97,2
1269,96,89
1268,97,6
1267,97,11
1266,96,88
1265,97,0
1264,96,81
1263,97,3
1262,96,93
1261,96,83
1260,96,85
1259,96,89
1258,96,81
1257,96,83
1256,96,95
1255,96,88
1254,96,99
1253,96,87
1252,96,78
1251,96,68
1250,96,66
1249,96,66
1248,96,69
1247,96,81
1246,96,70
1245,96,69
1244,96,72
1243,96,68
1242,96,71
1241,96,56
1240,96,64
1239,96,52
1238,96,45
1237,96,38
1236,96,31
1235,96,35
1234,96,50
1233,96,41
1232,96,19
1231,96,29
1230,96,25
1229,96,30
1228,96,17
1227,96,6
1226,96,17
1225,95,89
1224,95,84
1223,95,66
1222,95,64
1221,95,86
1220,95,58
1219,95,58
1218,95,42
1217,95,42
1216,95,22
1215,95,30
1214,95,13
1213,95,28
1212,94,97
1211,94,89
1210,94,74
1209,94,56
1208,94,51
1207,94,60
1206,94,51
1205,94,11
1204,94,33
1203,94,30
1202,94,16
1201,94,34
1200,94,10
1199,94,25
1198,93,86
1197,93,93
1196,93,61
1195,93,89
1194,93,68
1193,93,75
1192,93,67
1191,93,71
1190,93,99
1189,93,73
1188,93,79
1187,93,81
1186,93,68
1185,93,70
1184,93,88
1183,93,73
1182,93,87
1181,93,59
1180,93,67
1179,93,53
1178,93,55
1177,93,60
1176,93,59
1175,93,45
1174,93,15
1173,93,44
1172,93,27
1171,92,94
1170,92,77
1169,92,66
1168,92,64
1167,92,76
1166,92,56
1165,92,64
1164,92,18
1163,92,26
1162,92,19
1161,92,16
1160,91,73
1159,91,59
1158,91,58
1157,91,41
1156,91,44
1155,91,59
1154,91,42
1153,91,33
1152,90,88
1151,91,3
1150,91,0
1149,91,16
1148,90,69
1147,90,31
1146,90,80
1145,90,32
1144,90,79
1143,90,72
1142,90,27
1141,90,49
1140,90,63
1139,90,48
1138,90,68
1137,90,44
1136,90,52
1135,90,56
1134,90,48
1133,90,30
1132,90,54
1131,90,34
1130,89,99
1129,90,21
1128,90,60
1127,90,55
1126,90,22
1125,90,20
1124,90,35
1123,90,10
1122,90,3
1121,89,92
1120,90,34
1119,90,40
1118,89,65
1117,90,3
1116,89,96
1115,89,95
1114,89,61
1113,89,70
1112,89,92
1111,89,61
1110,89,53
1109,89,52
1108,88,85
1107,89,5
1106,88,89
1105,88,82
1104,88,91
1103,88,53
1102,88,60
1101,88,97
1100,88,51
1099,88,19
1098,87,95
1097,88,6
1096,87,91
1095,87,86
1094,87,78
1093,87,57
1092,87,51
1091,87,79
1090,87,57
1089,87,53
1088,87,24
1087,87,29
1086,87,27
1085,86,60
1084,87,71
1083,86,97
1082,86,64
1081,86,88
1080,86,82
1079,86,54
1078,86,26
1077,86,74
1076,86,46
1075,86,10
1074,86,44
1073,86,64
1072,86,25
1071,86,4
1070,85,89
1069,86,28
1068,85,75
1067,85,95
1066,86,26
1065,85,89
1064,85,84
1063,85,74
1062,85,94
1061,85,52
1060,85,64
1059,85,56
1058,85,52
1057,85,45
1056,85,85
1055,85,73
1054,85,71
1053,86,6
1052,85,82
1051,85,69
1050,85,67
1049,85,41
1048,85,46
1047,85,31
1046,86,1
1045,85,30
1044,85,45
1043,85,58
1042,85,49
1041,85,47
1040,85,26
1039,85,14
1038,85,21
1037,85,30
1036,84,94
1035,85,27
1034,84,91
1033,85,6
1032,84,92
1031,84,94
1030,84,80
1029,84,71
1028,84,69
1027,84,47
1026,84,61
1025,84,71
1024,84,26
1023,84,45
1022,83,92
1021,83,94
1020,83,70
1019,83,53
1018,83,21
1017,83,3
1016,82,94
1015,83,36
1014,83,41
1013,83,10
1012,83,38
1011,83,73
1010,83,46
1009,84,21
1008,84,11
1007,83,71
1006,83,90
1005,83,87
1004,84,19
1003,84,9
1002,84,8
1001,84,17
1000,84,29
999,84,31
998,84,30
997,84,35
996,84,29
995,84,9
994,84,57
993,84,63
992,84,57
991,84,62
990,84,44
989,84,60
988,84,83
987,84,97
986,84,81
985,84,46
984,84,64
983,84,73
982,84,88
981,84,63
980,84,93
979,84,70
978,85,11
977,85,26
976,84,87
975,85,14
974,85,35
973,85,54
972,85,59
971,85,13
970,85,64
969,85,38
968,85,76
967,85,82
966,85,99
965,86,13
964,86,8
963,86,18
962,86,8
961,86,39
960,86,20
959,86,23
958,86,11
957,86,5
956,86,11
955,86,4
954,86,37
953,86,7
952,86,8
951,86,33
950,86,18
949,86,44
948,86,27
947,86,20
946,86,37
945,86,47
944,85,88
943,86,64
942,86,48
941,86,33
940,86,29
939,86,35
938,86,76
937,87,8
936,86,97
935,86,77
934,86,72
933,86,70
932,87,14
931,86,93
930,87,12
929,87,22
928,86,87
927,87,22
926,87,4
925,87,17
924,87,34
923,87,12
922,87,58
921,87,24
920,87,16
919,87,32
918,87,48
917,87,70
916,87,53
915,87,35
914,87,36
913,87,37
912,87,75
911,87,89
910,88,2
909,88,1
908,87,51
907,87,64
906,87,52
905,88,1
904,87,87
903,87,45
902,87,38
901,87,20
900,86,95
899,86,49
898,86,13
897,86,10
896,85,54
895,85,17
894,84,57
893,83,67
892,83,28
891,82,81
890,82,30
889,82,23
888,82,41
887,82,31
886,82,22
885,82,49
884,82,79
883,83,4
882,83,10
881,83,33
880,83,51
879,83,49
878,83,35
877,84,31
876,84,9
875,84,46
874,84,84
873,85,11
872,84,94
871,85,56
870,85,96
869,86,33
868,86,45
867,86,79
866,86,67
865,87,12
864,87,74
863,87,68
862,87,93
861,87,68
860,88,15
859,88,22
858,88,66
857,88,47
856,88,6
855,88,24
854,88,56
853,89,0
852,88,77
851,88,62
850,88,87
849,89,31
848,89,23
847,89,52
846,89,72
845,89,76
844,89,14
843,89,62
842,90,58
841,89,96
840,89,58
839,89,73
838,90,18
837,89,61
836,89,54
835,90,17
834,89,82
833,89,87
832,90,10
831,89,71
830,89,56
829,89,64
828,90,40
827,90,22
826,90,10
825,90,65
824,90,45
823,90,27
822,90,59
821,90,50
820,90,39
819,90,54
818,90,72
817,90,55
816,90,51
815,90,51
814,90,60
813,90,70
812,91,48
811,91,25
810,91,19
809,90,80
808,90,92
807,90,98
806,91,17
805,90,92
804,90,56
803,91,54
802,91,22
801,91,31
800,91,29
799,91,3
798,91,33
797,90,97
796,91,85
795,91,55
794,91,56
793,91,5
792,91,16
791,91,30
790,92,2
789,91,19
788,91,20
787,91,46
786,91,21
785,91,0
784,91,44
783,91,39
782,90,63
781,91,37
780,91,0
779,91,18
778,91,20
777,91,56
776,91,8
775,90,80
774,90,94
773,91,7
772,91,50
771,91,25
770,91,83
769,91,2
768,91,14
767,91,40
766,91,13
765,91,45
764,91,24
763,90,95
762,91,29
761,91,9
760,90,85
759,91,4
758,90,99
757,90,82
756,90,76
755,90,62
754,90,61
753,89,99
752,89,54
751,88,9
750,88,6
749,87,17
748,87,15
747,87,80
746,88,54
745,88,87
744,89,4
743,89,44
742,89,64
741,89,75
740,89,61
739,89,34
738,89,52
737,90,19
736,89,83
735,90,16
734,89,43
733,89,59
732,89,71
731,89,9
730,90,25
729,90,58
728,89,66
727,89,58
726,90,11
725,89,73
724,89,83
723,90,24
722,89,91
721,89,39
720,89,69
719,90,16
718,90,0
717,89,63
716,89,79
715,89,63
714,89,30
713,89,84
712,89,74
711,89,35
710,89,44
709,90,36
708,89,53
707,89,70
706,89,33
705,89,76
704,90,3
703,90,26
702,90,19
701,89,52
700,89,90
699,90,27
698,89,30
697,89,61
696,89,47
695,88,74
694,88,68
693,89,80
692,89,34
691,89,26
690,89,66
689,89,8
688,89,45
687,89,93
686,89,16
685,89,92
684,89,16
683,88,96
682,89,50
681,88,44
680,89,92
679,89,15
678,90,11
677,89,24
676,88,88
675,89,72
674,90,1
673,89,25
672,88,70
671,89,13
670,89,6
669,89,9
668,90,8
667,90,16
666,88,84
665,89,59
664,90,7
663,88,96
662,89,93
661,89,35
660,89,47
659,88,38
658,88,32
657,88,64
656,89,13
655,88,87
654,88,33
653,88,99
652,89,88
651,87,71
650,88,43
649,88,42
648,87,48
647,87,55
646,88,6
645,87,53
644,88,43
643,88,5
642,87,82
641,89,40
640,88,27
639,88,85
638,86,0
637,85,98
636,85,35
635,85,34
634,87,89
633,88,8
632,86,67
631,86,21
630,84,61
629,87,5
628,88,87
627,86,44
626,83,50
625,85,48
624,88,31
623,85,10
622,85,37
621,82,6
620,83,42
619,87,67
618,87,89
617,81,12
616,87,62
615,85,82
614,82,83
613,82,58
612,86,49
611,87,4
610,85,94
609,85,48
608,78,28
607,85,49
606,82,8
605,81,20
604,82,51
603,86,74
602,76,86
601,80,29
600,88,11
