Created as New Dataset;Sample 061 By Administrator Date donderdag, februari 26 2026,
cm-1,%T,comma
4000,92,57
3999,93,9
3998,92,79
3997,92,90
3996,92,83
3995,92,90
3994,93,11
3993,92,99
3992,92,70
3991,92,76
3990,92,72
3989,92,52
3988,92,83
3987,92,88
3986,92,92
3985,92,93
3984,92,94
3983,92,87
3982,93,7
3981,92,83
3980,92,47
3979,92,68
3978,92,63
3977,92,91
3976,93,7
3975,92,94
3974,93,4
3973,93,18
3972,93,20
3971,92,71
3970,92,90
3969,92,94
3968,92,56
3967,93,2
3966,92,99
3965,92,79
3964,93,12
3963,93,5
3962,92,64
3961,93,9
3960,92,95
3959,92,82
3958,93,9
3957,92,98
3956,93,17
3955,93,15
3954,93,0
3953,93,1
3952,92,96
3951,93,56
3950,93,55
3949,93,47
3948,93,39
3947,93,5
3946,93,12
3945,93,22
3944,93,33
3943,93,17
3942,93,67
3941,93,9
3940,92,97
3939,93,28
3938,93,6
3937,92,86
3936,92,99
3935,92,73
3934,93,25
3933,93,61
3932,93,30
3931,93,65
3930,93,66
3929,93,44
3928,93,27
3927,93,21
3926,93,50
3925,94,55
3924,93,63
3923,93,66
3922,93,27
3921,93,32
3920,93,64
3919,93,41
3918,93,21
3917,93,49
3916,93,65
3915,93,39
3914,93,20
3913,93,1
3912,93,1
3911,92,98
3910,92,96
3909,92,86
3908,93,29
3907,93,80
3906,94,14
3905,94,88
3904,94,9
3903,94,74
3902,94,27
3901,93,84
3900,94,23
3899,95,40
3898,94,10
3897,93,31
3896,93,38
3895,93,50
3894,93,52
3893,94,10
3892,94,49
3891,94,67
3890,93,97
3889,93,30
3888,93,20
3887,94,0
3886,93,48
3885,94,33
3884,94,21
3883,93,92
3882,94,19
3881,94,72
3880,94,27
3879,93,98
3878,93,27
3877,93,41
3876,93,63
3875,94,29
3874,94,44
3873,94,35
3872,94,30
3871,95,32
3870,96,1
3869,95,66
3868,94,10
3867,94,3
3866,94,47
3865,94,67
3864,94,70
3863,94,52
3862,94,16
3861,94,1
3860,93,21
3859,93,55
3858,94,15
3857,94,79
3856,94,97
3855,96,73
3854,86,49
3853,97,23
3852,98,13
3851,94,74
3850,93,84
3849,93,97
3848,93,34
3847,93,35
3846,93,63
3845,94,3
3844,94,52
3843,94,70
3842,94,48
3841,95,1
3840,95,45
3839,95,54
3838,98,48
3837,95,66
3836,95,23
3835,95,7
3834,94,30
3833,94,30
3832,94,61
3831,94,61
3830,94,3
3829,93,68
3828,94,23
3827,94,96
3826,94,36
3825,93,83
3824,94,27
3823,94,95
3822,96,13
3821,96,12
3820,95,62
3819,94,56
3818,94,62
3817,95,44
3816,96,62
3815,94,72
3814,93,67
3813,93,35
3812,93,66
3811,93,39
3810,93,11
3809,93,72
3808,94,61
3807,94,87
3806,94,72
3805,94,20
3804,94,20
3803,95,63
3802,97,15
3801,96,10
3800,94,99
3799,94,31
3798,94,51
3797,94,99
3796,94,63
3795,93,79
3794,93,55
3793,93,49
3792,93,29
3791,93,35
3790,93,63
3789,93,34
3788,93,25
3787,93,58
3786,93,75
3785,94,6
3784,94,23
3783,93,39
3782,93,69
3781,93,67
3780,94,74
3779,94,67
3778,94,30
3777,93,57
3776,93,18
3775,93,26
3774,93,39
3773,93,30
3772,93,53
3771,94,59
3770,95,8
3769,94,29
3768,93,55
3767,94,28
3766,94,84
3765,94,26
3764,93,99
3763,93,63
3762,93,62
3761,94,12
3760,95,50
3759,94,87
3758,94,57
3757,95,25
3756,94,86
3755,94,42
3754,95,6
3753,96,24
3752,96,47
3751,96,81
3750,97,8
3749,96,34
3748,95,32
3747,95,48
3746,96,7
3745,97,73
3744,96,55
3743,94,69
3742,94,54
3741,95,19
3740,94,88
3739,95,7
3738,95,53
3737,95,86
3736,96,66
3735,94,38
3734,96,0
3733,95,73
3732,96,29
3731,94,65
3730,94,10
3729,93,74
3728,94,14
3727,94,52
3726,94,82
3725,95,36
3724,94,29
3723,94,71
3722,95,49
3721,94,7
3720,94,23
3719,94,40
3718,93,88
3717,93,68
3716,94,0
3715,94,29
3714,94,20
3713,94,79
3712,95,44
3711,95,39
3710,95,33
3709,95,26
3708,94,68
3707,93,82
3706,94,5
3705,93,55
3704,93,63
3703,94,29
3702,94,98
3701,94,27
3700,93,61
3699,93,87
3698,93,50
3697,93,65
3696,93,74
3695,93,51
3694,93,77
3693,94,30
3692,94,45
3691,95,87
3690,96,57
3689,97,31
3688,96,62
3687,94,39
3686,93,83
3685,93,59
3684,93,67
3683,93,49
3682,93,53
3681,93,54
3680,94,53
3679,94,57
3678,94,40
3677,95,95
3676,98,67
3675,95,77
3674,95,72
3673,94,35
3672,94,68
3671,97,15
3670,96,68
3669,95,77
3668,94,48
3667,93,72
3666,93,35
3665,93,51
3664,93,38
3663,93,48
3662,93,44
3661,93,45
3660,93,35
3659,93,88
3658,93,98
3657,94,35
3656,95,19
3655,93,81
3654,93,85
3653,93,97
3652,95,9
3651,97,52
3650,96,39
3649,97,0
3648,97,7
3647,95,68
3646,95,36
3645,94,4
3644,93,44
3643,93,81
3642,93,98
3641,93,73
3640,93,86
3639,93,78
3638,93,76
3637,93,66
3636,93,65
3635,94,1
3634,94,23
3633,93,92
3632,93,85
3631,94,63
3630,96,52
3629,97,53
3628,96,29
3627,94,65
3626,94,26
3625,93,98
3624,93,50
3623,93,74
3622,93,99
3621,94,74
3620,94,99
3619,95,41
3618,94,56
3617,94,64
3616,94,40
3615,95,4
3614,95,43
3613,94,74
3612,94,31
3611,94,19
3610,94,18
3609,94,13
3608,94,53
3607,95,58
3606,94,24
3605,93,64
3604,93,23
3603,93,67
3602,94,16
3601,94,12
3600,94,20
3599,94,16
3598,94,10
3597,93,85
3596,93,87
3595,94,88
3594,94,43
3593,94,45
3592,93,56
3591,93,57
3590,93,78
3589,94,91
3588,94,83
3587,95,40
3586,94,35
3585,93,46
3584,93,79
3583,93,53
3582,93,64
3581,93,75
3580,93,52
3579,93,60
3578,93,54
3577,93,73
3576,93,90
3575,93,55
3574,93,57
3573,93,35
3572,93,41
3571,93,41
3570,93,55
3569,94,28
3568,95,24
3567,95,63
3566,95,80
3565,94,67
3564,94,18
3563,94,12
3562,93,62
3561,93,50
3560,93,82
3559,93,65
3558,93,20
3557,93,53
3556,93,60
3555,93,4
3554,93,50
3553,93,76
3552,93,90
3551,93,54
3550,93,49
3549,93,22
3548,94,11
3547,93,81
3546,93,82
3545,93,92
3544,93,71
3543,93,66
3542,93,44
3541,93,43
3540,93,28
3539,93,50
3538,93,26
3537,92,94
3536,93,67
3535,93,16
3534,93,17
3533,93,41
3532,93,43
3531,93,40
3530,93,36
3529,93,90
3528,93,56
3527,93,93
3526,93,66
3525,93,73
3524,93,49
3523,93,72
3522,93,83
3521,93,40
3520,93,50
3519,93,57
3518,93,37
3517,93,4
3516,93,37
3515,93,49
3514,93,30
3513,93,28
3512,93,37
3511,93,66
3510,93,35
3509,93,30
3508,93,49
3507,93,11
3506,93,27
3505,93,69
3504,94,12
3503,93,76
3502,93,47
3501,93,38
3500,93,20
3499,93,36
3498,93,13
3497,93,38
3496,93,40
3495,93,1
3494,93,48
3493,93,30
3492,93,43
3491,93,7
3490,93,36
3489,93,28
3488,93,41
3487,93,52
3486,93,11
3485,93,0
3484,93,26
3483,93,5
3482,93,58
3481,93,38
3480,93,37
3479,92,95
3478,93,5
3477,93,24
3476,93,42
3475,93,29
3474,93,37
3473,93,62
3472,93,17
3471,93,6
3470,93,11
3469,93,4
3468,93,9
3467,93,45
3466,93,2
3465,93,20
3464,93,2
3463,93,15
3462,93,10
3461,93,18
3460,93,37
3459,93,51
3458,93,0
3457,93,5
3456,93,13
3455,93,25
3454,93,32
3453,93,18
3452,93,15
3451,93,25
3450,93,21
3449,92,99
3448,93,52
3447,93,74
3446,93,42
3445,92,99
3444,93,31
3443,93,52
3442,93,42
3441,93,50
3440,93,11
3439,92,77
3438,93,17
3437,93,4
3436,93,36
3435,93,18
3434,93,32
3433,93,24
3432,93,38
3431,92,76
3430,92,84
3429,93,10
3428,92,94
3427,93,23
3426,92,91
3425,93,9
3424,93,8
3423,93,1
3422,93,52
3421,93,16
3420,93,2
3419,93,14
3418,92,73
3417,92,91
3416,93,12
3415,93,3
3414,92,84
3413,92,99
3412,92,86
3411,92,98
3410,92,86
3409,93,7
3408,93,7
3407,92,88
3406,92,98
3405,93,7
3404,92,75
3403,92,83
3402,92,87
3401,92,86
3400,93,17
3399,92,96
3398,93,8
3397,93,9
3396,93,0
3395,93,3
3394,93,9
3393,92,94
3392,93,14
3391,92,96
3390,92,90
3389,92,90
3388,93,8
3387,93,33
3386,92,93
3385,93,5
3384,93,0
3383,93,9
3382,92,83
3381,92,91
3380,93,2
3379,92,82
3378,93,0
3377,92,89
3376,92,85
3375,93,18
3374,93,36
3373,93,26
3372,93,10
3371,93,26
3370,93,8
3369,93,5
3368,93,29
3367,93,8
3366,93,25
3365,93,56
3364,93,64
3363,93,22
3362,93,28
3361,93,15
3360,93,42
3359,93,30
3358,93,26
3357,93,5
3356,93,25
3355,93,45
3354,93,36
3353,92,80
3352,93,27
3351,92,99
3350,93,10
3349,93,19
3348,93,10
3347,93,25
3346,93,30
3345,93,39
3344,93,34
3343,93,15
3342,92,98
3341,93,29
3340,93,4
3339,93,25
3338,93,12
3337,93,39
3336,93,41
3335,93,30
3334,93,23
3333,93,31
3332,93,34
3331,93,35
3330,93,48
3329,93,23
3328,93,50
3327,93,48
3326,93,31
3325,93,48
3324,93,43
3323,93,29
3322,93,41
3321,93,13
3320,93,40
3319,93,47
3318,93,32
3317,93,55
3316,93,83
3315,93,25
3314,93,21
3313,93,39
3312,93,45
3311,93,38
3310,93,42
3309,93,62
3308,93,26
3307,93,38
3306,93,56
3305,93,51
3304,93,57
3303,93,30
3302,93,61
3301,93,41
3300,93,24
3299,93,50
3298,93,34
3297,93,46
3296,93,61
3295,93,41
3294,93,54
3293,93,53
3292,93,36
3291,93,40
3290,93,56
3289,93,55
3288,93,52
3287,93,35
3286,93,70
3285,93,41
3284,93,69
3283,93,52
3282,93,51
3281,93,30
3280,93,57
3279,93,60
3278,93,60
3277,93,52
3276,93,58
3275,93,53
3274,93,82
3273,93,64
3272,93,62
3271,93,74
3270,93,21
3269,93,33
3268,93,56
3267,93,36
3266,93,39
3265,93,24
3264,93,60
3263,93,47
3262,93,77
3261,93,52
3260,93,39
3259,93,75
3258,93,74
3257,93,72
3256,93,60
3255,93,80
3254,93,56
3253,93,77
3252,93,75
3251,93,66
3250,93,50
3249,93,52
3248,93,44
3247,93,39
3246,93,77
3245,93,98
3244,93,80
3243,93,72
3242,93,68
3241,93,79
3240,93,64
3239,93,84
3238,93,63
3237,93,70
3236,93,52
3235,93,72
3234,93,61
3233,93,79
3232,94,6
3231,93,77
3230,93,65
3229,93,69
3228,93,68
3227,93,77
3226,93,65
3225,93,65
3224,93,63
3223,93,74
3222,94,4
3221,93,67
3220,93,68
3219,93,69
3218,93,73
3217,93,45
3216,93,71
3215,93,70
3214,94,9
3213,93,85
3212,93,72
3211,94,5
3210,93,99
3209,93,81
3208,93,49
3207,93,60
3206,93,58
3205,93,87
3204,93,82
3203,93,89
3202,93,80
3201,93,97
3200,94,9
3199,93,85
3198,94,11
3197,93,93
3196,93,99
3195,93,87
3194,93,69
3193,93,86
3192,93,68
3191,93,85
3190,93,61
3189,93,91
3188,93,93
3187,94,0
3186,93,85
3185,93,91
3184,93,82
3183,93,80
3182,93,63
3181,94,19
3180,93,89
3179,93,81
3178,93,63
3177,93,80
3176,93,97
3175,93,78
3174,93,90
3173,93,72
3172,93,92
3171,93,79
3170,93,95
3169,93,82
3168,93,85
3167,93,94
3166,93,91
3165,94,10
3164,94,1
3163,94,12
3162,93,91
3161,93,88
3160,94,8
3159,94,22
3158,93,92
3157,94,1
3156,93,91
3155,93,76
3154,93,95
3153,93,71
3152,93,84
3151,93,79
3150,94,0
3149,93,91
3148,93,75
3147,94,1
3146,93,93
3145,93,69
3144,94,19
3143,93,75
3142,94,0
3141,93,72
3140,93,59
3139,94,5
3138,94,6
3137,93,90
3136,94,8
3135,94,15
3134,94,1
3133,94,15
3132,94,22
3131,94,18
3130,93,96
3129,93,89
3128,93,91
3127,94,11
3126,94,8
3125,93,83
3124,94,5
3123,94,13
3122,94,8
3121,93,82
3120,94,3
3119,94,55
3118,94,34
3117,93,81
3116,94,20
3115,94,24
3114,94,12
3113,94,0
3112,94,28
3111,94,38
3110,94,16
3109,93,98
3108,93,99
3107,94,6
3106,93,76
3105,94,3
3104,93,97
3103,94,19
3102,94,43
3101,94,31
3100,94,21
3099,94,35
3098,94,5
3097,94,16
3096,94,44
3095,94,21
3094,94,19
3093,94,13
3092,94,24
3091,94,12
3090,94,16
3089,94,1
3088,94,16
3087,93,95
3086,94,11
3085,94,36
3084,94,29
3083,94,7
3082,94,15
3081,94,46
3080,94,38
3079,94,45
3078,94,32
3077,94,25
3076,94,9
3075,93,90
3074,94,33
3073,94,32
3072,94,24
3071,94,51
3070,94,15
3069,93,98
3068,94,23
3067,94,33
3066,94,22
3065,94,30
3064,94,37
3063,94,14
3062,94,28
3061,94,41
3060,94,39
3059,94,32
3058,94,11
3057,94,62
3056,94,43
3055,94,63
3054,94,34
3053,94,35
3052,94,47
3051,94,57
3050,94,43
3049,94,25
3048,94,29
3047,94,31
3046,94,28
3045,94,30
3044,94,41
3043,94,36
3042,94,36
3041,94,52
3040,94,52
3039,94,35
3038,94,32
3037,94,66
3036,94,55
3035,94,44
3034,94,20
3033,94,52
3032,94,48
3031,94,46
3030,94,53
3029,94,30
3028,94,42
3027,94,56
3026,94,46
3025,94,62
3024,94,38
3023,94,43
3022,94,39
3021,94,37
3020,94,46
3019,94,40
3018,94,57
3017,94,68
3016,94,43
3015,94,61
3014,94,63
3013,94,43
3012,94,53
3011,94,33
3010,94,35
3009,94,61
3008,94,29
3007,94,45
3006,94,60
3005,94,68
3004,94,43
3003,94,44
3002,94,55
3001,94,62
3000,94,58
2999,94,77
2998,94,49
2997,94,43
2996,94,66
2995,94,54
2994,94,56
2993,94,49
2992,94,34
2991,94,66
2990,94,56
2989,94,42
2988,94,60
2987,94,58
2986,94,42
2985,94,93
2984,94,57
2983,94,50
2982,94,38
2981,94,59
2980,94,61
2979,94,53
2978,94,70
2977,94,68
2976,94,65
2975,94,33
2974,94,46
2973,94,67
2972,94,48
2971,94,56
2970,94,86
2969,94,46
2968,94,51
2967,94,48
2966,94,55
2965,94,79
2964,94,48
2963,94,57
2962,94,88
2961,94,68
2960,94,79
2959,94,66
2958,94,67
2957,94,62
2956,94,88
2955,94,79
2954,94,52
2953,94,41
2952,94,48
2951,94,71
2950,94,92
2949,94,85
2948,94,72
2947,94,62
2946,94,47
2945,94,62
2944,94,84
2943,94,86
2942,94,71
2941,94,67
2940,94,77
2939,94,69
2938,94,69
2937,94,66
2936,94,89
2935,94,69
2934,94,91
2933,94,79
2932,94,54
2931,94,78
2930,94,70
2929,94,71
2928,94,57
2927,94,76
2926,94,74
2925,94,68
2924,94,90
2923,94,57
2922,94,67
2921,94,80
2920,94,81
2919,94,67
2918,94,83
2917,94,89
2916,94,80
2915,94,73
2914,95,12
2913,94,69
2912,94,51
2911,94,82
2910,94,78
2909,94,78
2908,94,81
2907,94,61
2906,94,65
2905,94,82
2904,94,72
2903,94,74
2902,94,81
2901,94,82
2900,94,93
2899,94,83
2898,94,69
2897,94,67
2896,94,60
2895,94,99
2894,94,92
2893,94,87
2892,94,74
2891,95,1
2890,94,99
2889,94,81
2888,94,82
2887,94,72
2886,95,0
2885,94,80
2884,94,87
2883,94,71
2882,94,97
2881,94,89
2880,94,83
2879,94,94
2878,94,91
2877,94,73
2876,94,95
2875,95,5
2874,94,82
2873,94,81
2872,94,90
2871,94,90
2870,94,83
2869,94,87
2868,94,85
2867,94,96
2866,95,16
2865,94,96
2864,94,94
2863,94,88
2862,94,93
2861,94,83
2860,94,98
2859,94,90
2858,95,1
2857,95,3
2856,95,4
2855,94,91
2854,94,95
2853,95,6
2852,95,4
2851,94,89
2850,94,80
2849,95,10
2848,94,94
2847,94,86
2846,94,98
2845,94,88
2844,95,9
2843,95,0
2842,94,98
2841,94,97
2840,94,89
2839,94,83
2838,94,93
2837,95,16
2836,95,24
2835,94,97
2834,95,5
2833,95,9
2832,95,21
2831,95,6
2830,94,93
2829,94,97
2828,95,0
2827,95,7
2826,95,0
2825,94,92
2824,94,92
2823,94,82
2822,95,6
2821,95,2
2820,95,10
2819,95,6
2818,95,25
2817,95,10
2816,95,14
2815,95,1
2814,94,96
2813,95,16
2812,95,2
2811,95,9
2810,95,8
2809,95,7
2808,95,0
2807,95,13
2806,95,21
2805,95,4
2804,95,16
2803,94,91
2802,95,4
2801,95,2
2800,95,5
2799,95,21
2798,95,13
2797,94,99
2796,95,3
2795,95,19
2794,95,5
2793,95,10
2792,95,9
2791,95,1
2790,94,99
2789,95,0
2788,95,29
2787,95,26
2786,95,6
2785,95,2
2784,95,5
2783,95,2
2782,95,9
2781,95,2
2780,95,13
2779,95,5
2778,95,13
2777,95,15
2776,95,20
2775,95,13
2774,95,11
2773,95,11
2772,94,94
2771,95,2
2770,95,16
2769,95,9
2768,95,3
2767,95,21
2766,95,26
2765,95,24
2764,95,18
2763,94,95
2762,95,22
2761,95,6
2760,95,1
2759,95,5
2758,95,25
2757,95,18
2756,95,9
2755,95,28
2754,95,14
2753,95,21
2752,95,9
2751,95,20
2750,95,10
2749,95,11
2748,95,21
2747,95,23
2746,95,22
2745,95,29
2744,95,17
2743,95,24
2742,95,27
2741,95,27
2740,95,17
2739,95,37
2738,95,29
2737,95,20
2736,95,4
2735,95,18
2734,95,15
2733,95,19
2732,95,15
2731,95,12
2730,95,18
2729,95,9
2728,95,11
2727,95,5
2726,95,12
2725,95,13
2724,95,5
2723,95,27
2722,95,15
2721,95,8
2720,95,25
2719,95,17
2718,95,15
2717,95,22
2716,95,20
2715,95,2
2714,95,12
2713,95,26
2712,95,30
2711,95,28
2710,95,25
2709,95,39
2708,95,31
2707,95,16
2706,95,8
2705,95,16
2704,95,18
2703,94,96
2702,95,28
2701,95,23
2700,95,14
2699,95,17
2698,95,13
2697,95,3
2696,95,22
2695,95,16
2694,95,14
2693,95,15
2692,95,28
2691,95,17
2690,95,30
2689,95,18
2688,95,19
2687,95,4
2686,95,26
2685,95,23
2684,95,11
2683,95,16
2682,95,22
2681,95,9
2680,95,16
2679,95,23
2678,95,39
2677,95,21
2676,95,20
2675,95,19
2674,95,26
2673,95,23
2672,95,19
2671,95,4
2670,95,8
2669,95,21
2668,95,18
2667,95,10
2666,95,10
2665,95,30
2664,95,19
2663,95,25
2662,95,19
2661,95,9
2660,95,35
2659,95,7
2658,95,39
2657,95,16
2656,95,11
2655,95,2
2654,95,5
2653,95,8
2652,95,14
2651,95,6
2650,95,18
2649,95,7
2648,94,91
2647,95,12
2646,95,24
2645,95,17
2644,95,1
2643,94,94
2642,95,16
2641,95,15
2640,95,28
2639,94,88
2638,95,13
2637,95,31
2636,95,22
2635,95,8
2634,95,16
2633,94,91
2632,94,99
2631,95,16
2630,95,28
2629,95,10
2628,95,7
2627,95,19
2626,95,17
2625,94,80
2624,95,9
2623,95,11
2622,95,1
2621,95,6
2620,95,22
2619,95,12
2618,95,5
2617,95,9
2616,95,7
2615,95,12
2614,95,9
2613,95,6
2612,94,95
2611,95,19
2610,94,96
2609,94,89
2608,94,97
2607,95,20
2606,95,35
2605,95,29
2604,94,97
2603,95,7
2602,95,4
2601,94,98
2600,95,26
2599,95,4
2598,94,88
2597,94,98
2596,95,18
2595,95,12
2594,95,18
2593,95,2
2592,95,41
2591,94,85
2590,95,8
2589,95,16
2588,95,27
2587,95,9
2586,95,8
2585,95,11
2584,95,15
2583,95,23
2582,95,30
2581,95,17
2580,95,31
2579,95,41
2578,95,15
2577,95,16
2576,95,17
2575,95,9
2574,95,35
2573,95,64
2572,95,5
2571,95,18
2570,95,18
2569,95,8
2568,95,33
2567,95,10
2566,95,37
2565,95,33
2564,95,12
2563,95,25
2562,95,9
2561,95,30
2560,95,2
2559,95,29
2558,95,38
2557,95,22
2556,95,26
2555,95,41
2554,95,26
2553,95,23
2552,95,9
2551,95,21
2550,95,18
2549,95,11
2548,95,16
2547,95,25
2546,95,27
2545,94,95
2544,95,11
2543,94,93
2542,95,14
2541,95,27
2540,95,35
2539,95,28
2538,95,29
2537,95,15
2536,95,19
2535,95,15
2534,95,23
2533,95,5
2532,95,10
2531,95,20
2530,95,15
2529,95,32
2528,95,45
2527,95,36
2526,95,33
2525,95,25
2524,95,0
2523,95,21
2522,95,10
2521,95,20
2520,95,27
2519,95,32
2518,95,5
2517,95,20
2516,95,19
2515,95,40
2514,95,34
2513,95,21
2512,95,14
2511,95,6
2510,95,33
2509,95,40
2508,95,31
2507,95,32
2506,95,30
2505,95,22
2504,95,45
2503,95,27
2502,94,96
2501,95,19
2500,95,55
2499,95,40
2498,95,29
2497,95,31
2496,95,50
2495,95,16
2494,95,27
2493,95,44
2492,95,4
2491,95,32
2490,95,27
2489,95,21
2488,95,34
2487,95,22
2486,95,31
2485,95,33
2484,95,42
2483,95,27
2482,95,18
2481,95,37
2480,95,39
2479,95,39
2478,95,40
2477,95,47
2476,95,6
2475,95,36
2474,95,43
2473,95,21
2472,95,42
2471,95,32
2470,95,45
2469,95,27
2468,95,47
2467,95,22
2466,95,35
2465,95,16
2464,95,18
2463,95,62
2462,95,53
2461,95,38
2460,95,4
2459,95,22
2458,95,30
2457,95,55
2456,95,55
2455,95,36
2454,95,24
2453,95,21
2452,95,12
2451,95,27
2450,95,47
2449,95,34
2448,95,36
2447,95,38
2446,95,24
2445,95,12
2444,95,46
2443,95,42
2442,95,34
2441,95,43
2440,95,36
2439,95,40
2438,95,41
2437,95,38
2436,95,40
2435,95,33
2434,95,33
2433,95,28
2432,95,52
2431,95,67
2430,95,41
2429,95,41
2428,95,14
2427,95,33
2426,95,45
2425,95,40
2424,95,39
2423,95,59
2422,95,45
2421,95,17
2420,95,31
2419,95,18
2418,95,56
2417,95,58
2416,95,43
2415,95,44
2414,95,63
2413,95,54
2412,95,58
2411,95,57
2410,95,52
2409,95,48
2408,95,60
2407,95,38
2406,95,57
2405,95,74
2404,95,53
2403,95,69
2402,95,40
2401,95,43
2400,95,43
2399,95,81
2398,95,50
2397,95,52
2396,95,62
2395,95,54
2394,95,64
2393,95,30
2392,95,63
2391,95,44
2390,95,73
2389,95,50
2388,95,53
2387,95,14
2386,95,34
2385,95,81
2384,96,15
2383,95,75
2382,95,77
2381,96,24
2380,96,13
2379,96,12
2378,95,74
2377,96,39
2376,96,25
2375,96,88
2374,96,50
2373,96,18
2372,96,43
2371,96,33
2370,96,27
2369,97,1
2368,96,21
2367,95,88
2366,96,72
2365,96,98
2364,97,18
2363,97,21
2362,96,89
2361,96,70
2360,96,79
2359,96,73
2358,97,98
2357,97,12
2356,96,65
2355,97,33
2354,96,45
2353,97,47
2352,96,99
2351,96,95
2350,96,85
2349,96,38
2348,96,25
2347,96,53
2346,96,50
2345,96,69
2344,96,58
2343,96,60
2342,96,18
2341,96,7
2340,96,37
2339,96,74
2338,96,61
2337,96,66
2336,96,42
2335,96,35
2334,96,90
2333,97,2
2332,96,78
2331,96,22
2330,96,94
2329,96,72
2328,96,32
2327,96,23
2326,96,65
2325,96,7
2324,96,48
2323,96,22
2322,96,33
2321,96,31
2320,96,32
2319,96,95
2318,96,38
2317,96,72
2316,96,30
2315,96,56
2314,96,29
2313,96,47
2312,96,42
2311,96,44
2310,96,16
2309,96,15
2308,96,31
2307,96,21
2306,96,60
2305,96,28
2304,96,9
2303,96,31
2302,96,49
2301,96,0
2300,95,72
2299,96,1
2298,95,90
2297,95,83
2296,95,77
2295,95,74
2294,96,25
2293,96,9
2292,95,57
2291,95,86
2290,96,32
2289,95,85
2288,95,88
2287,95,99
2286,95,71
2285,95,69
2284,95,46
2283,95,65
2282,95,67
2281,95,81
2280,95,68
2279,95,57
2278,95,72
2277,95,78
2276,95,44
2275,95,91
2274,96,12
2273,95,57
2272,95,66
2271,95,94
2270,95,76
2269,96,19
2268,95,84
2267,96,2
2266,95,83
2265,95,64
2264,95,69
2263,96,28
2262,95,90
2261,96,7
2260,95,46
2259,95,58
2258,95,54
2257,96,8
2256,95,87
2255,95,64
2254,95,75
2253,95,59
2252,96,6
2251,95,73
2250,95,81
2249,95,90
2248,95,67
2247,95,79
2246,95,41
2245,96,20
2244,95,62
2243,95,90
2242,96,6
2241,95,82
2240,96,7
2239,95,96
2238,95,79
2237,95,67
2236,96,5
2235,95,54
2234,95,99
2233,95,72
2232,95,78
2231,96,23
2230,96,51
2229,95,21
2228,96,3
2227,96,3
2226,95,67
2225,95,85
2224,95,97
2223,95,97
2222,95,90
2221,95,31
2220,95,95
2219,96,41
2218,96,0
2217,95,83
2216,95,77
2215,96,28
2214,96,31
2213,96,27
2212,96,9
2211,95,80
2210,95,70
2209,95,80
2208,95,92
2207,96,21
2206,95,62
2205,95,96
2204,96,34
2203,95,76
2202,95,28
2201,95,96
2200,96,4
2199,96,31
2198,95,59
2197,95,82
2196,95,42
2195,95,43
2194,95,83
2193,95,91
2192,96,0
2191,96,94
2190,95,67
2189,95,89
2188,95,36
2187,95,59
2186,96,33
2185,96,11
2184,95,89
2183,95,24
2182,96,26
2181,96,10
2180,96,10
2179,95,89
2178,96,6
2177,96,15
2176,95,51
2175,95,96
2174,95,90
2173,95,56
2172,95,46
2171,96,28
2170,96,56
2169,95,93
2168,95,96
2167,95,59
2166,95,90
2165,95,53
2164,95,15
2163,94,78
2162,95,76
2161,95,77
2160,95,86
2159,95,70
2158,96,20
2157,95,45
2156,96,22
2155,95,59
2154,95,85
2153,96,63
2152,96,4
2151,96,68
2150,96,25
2149,96,55
2148,96,66
2147,96,60
2146,95,85
2145,95,76
2144,95,59
2143,95,88
2142,96,65
2141,96,21
2140,96,19
2139,95,83
2138,95,60
2137,95,88
2136,95,94
2135,95,85
2134,95,81
2133,96,53
2132,95,88
2131,96,52
2130,96,0
2129,96,43
2128,95,99
2127,96,11
2126,96,44
2125,96,22
2124,95,97
2123,96,20
2122,96,67
2121,96,32
2120,96,38
2119,96,20
2118,96,19
2117,95,83
2116,95,94
2115,95,85
2114,96,11
2113,95,88
2112,96,32
2111,96,7
2110,96,9
2109,96,33
2108,95,57
2107,95,98
2106,95,95
2105,96,27
2104,96,12
2103,96,0
2102,96,6
2101,96,0
2100,96,44
2099,95,75
2098,96,31
2097,96,19
2096,96,27
2095,96,9
2094,96,10
2093,95,93
2092,95,90
2091,96,0
2090,96,60
2089,95,87
2088,96,19
2087,96,15
2086,96,31
2085,95,97
2084,96,24
2083,95,94
2082,95,94
2081,95,70
2080,95,79
2079,96,4
2078,96,42
2077,95,83
2076,95,82
2075,96,9
2074,95,66
2073,96,23
2072,95,99
2071,96,19
2070,96,11
2069,95,88
2068,96,22
2067,95,95
2066,95,75
2065,95,44
2064,96,0
2063,96,7
2062,96,35
2061,96,13
2060,96,40
2059,95,63
2058,95,83
2057,96,2
2056,96,22
2055,95,98
2054,96,45
2053,96,0
2052,96,9
2051,95,48
2050,95,98
2049,96,9
2048,96,68
2047,96,42
2046,96,56
2045,96,20
2044,95,28
2043,97,6
2042,95,90
2041,96,28
2040,96,67
2039,96,3
2038,95,82
2037,96,53
2036,96,17
2035,95,98
2034,94,97
2033,96,34
2032,96,52
2031,95,84
2030,96,4
2029,95,95
2028,95,88
2027,95,67
2026,95,45
2025,95,54
2024,96,38
2023,96,19
2022,96,23
2021,95,40
2020,96,87
2019,96,14
2018,96,5
2017,96,37
2016,95,95
2015,95,57
2014,96,42
2013,96,28
2012,97,5
2011,96,62
2010,95,52
2009,95,45
2008,95,68
2007,95,23
2006,96,8
2005,96,55
2004,96,18
2003,96,43
2002,96,51
2001,95,99
2000,96,21
1999,96,23
1998,95,90
1997,95,87
1996,96,14
1995,95,85
1994,96,21
1993,96,13
1992,96,6
1991,96,6
1990,96,17
1989,96,29
1988,96,44
1987,96,0
1986,96,23
1985,96,1
1984,95,78
1983,96,5
1982,95,60
1981,96,3
1980,96,12
1979,95,65
1978,95,59
1977,96,13
1976,96,9
1975,97,2
1974,96,20
1973,96,45
1972,96,25
1971,96,55
1970,96,28
1969,97,5
1968,96,28
1967,96,36
1966,96,53
1965,96,15
1964,96,60
1963,95,81
1962,96,17
1961,95,71
1960,96,8
1959,96,14
1958,95,87
1957,95,93
1956,96,46
1955,96,18
1954,96,36
1953,96,16
1952,96,9
1951,96,26
1950,96,49
1949,96,63
1948,95,95
1947,96,29
1946,96,49
1945,96,61
1944,96,16
1943,95,50
1942,96,86
1941,96,72
1940,96,21
1939,96,41
1938,96,56
1937,96,38
1936,96,10
1935,96,11
1934,96,9
1933,96,15
1932,96,24
1931,96,53
1930,96,35
1929,96,30
1928,96,15
1927,95,85
1926,96,90
1925,96,28
1924,96,35
1923,96,90
1922,96,76
1921,96,50
1920,96,23
1919,95,96
1918,96,37
1917,96,62
1916,96,67
1915,96,27
1914,96,17
1913,96,30
1912,96,48
1911,96,65
1910,96,25
1909,96,46
1908,96,64
1907,96,67
1906,96,62
1905,96,38
1904,96,22
1903,96,46
1902,96,7
1901,96,80
1900,96,47
1899,96,57
1898,96,30
1897,96,50
1896,96,17
1895,96,46
1894,96,50
1893,96,59
1892,96,32
1891,96,43
1890,96,50
1889,96,79
1888,96,40
1887,96,35
1886,96,22
1885,96,35
1884,96,42
1883,96,38
1882,96,50
1881,96,33
1880,96,32
1879,96,62
1878,96,21
1877,96,41
1876,96,42
1875,96,45
1874,96,28
1873,96,23
1872,96,54
1871,96,5
1870,96,20
1869,96,0
1868,96,94
1867,96,62
1866,96,50
1865,96,30
1864,96,21
1863,96,56
1862,96,54
1861,96,62
1860,96,27
1859,96,32
1858,96,63
1857,96,59
1856,96,55
1855,96,58
1854,96,53
1853,96,39
1852,96,62
1851,96,44
1850,96,47
1849,96,46
1848,96,35
1847,96,45
1846,96,49
1845,96,23
1844,96,35
1843,96,96
1842,96,80
1841,96,53
1840,96,38
1839,96,37
1838,96,48
1837,96,73
1836,96,65
1835,96,57
1834,96,60
1833,96,28
1832,96,31
1831,96,46
1830,96,48
1829,97,15
1828,96,85
1827,96,44
1826,96,19
1825,96,62
1824,96,77
1823,96,27
1822,96,64
1821,96,64
1820,96,34
1819,96,15
1818,96,47
1817,96,65
1816,96,57
1815,96,45
1814,96,49
1813,96,56
1812,96,43
1811,96,38
1810,96,83
1809,96,80
1808,96,37
1807,96,55
1806,96,45
1805,96,54
1804,96,56
1803,96,60
1802,96,53
1801,96,84
1800,96,74
1799,96,67
1798,96,53
1797,96,35
1796,96,44
1795,96,65
1794,96,68
1793,96,59
1792,96,64
1791,96,71
1790,96,58
1789,96,52
1788,96,38
1787,96,69
1786,96,50
1785,96,51
1784,96,54
1783,96,66
1782,96,33
1781,96,32
1780,96,73
1779,96,65
1778,96,57
1777,96,68
1776,96,61
1775,96,67
1774,96,55
1773,96,46
1772,96,44
1771,97,3
1770,96,73
1769,96,62
1768,96,67
1767,96,50
1766,96,46
1765,96,40
1764,96,38
1763,96,64
1762,96,54
1761,96,84
1760,96,60
1759,96,26
1758,96,39
1757,96,87
1756,96,73
1755,96,83
1754,96,41
1753,96,38
1752,96,25
1751,97,11
1750,96,84
1749,96,48
1748,96,89
1747,96,65
1746,96,68
1745,96,47
1744,96,81
1743,97,9
1742,96,72
1741,96,60
1740,96,83
1739,96,85
1738,96,69
1737,96,65
1736,96,43
1735,96,55
1734,95,54
1733,96,79
1732,96,85
1731,96,65
1730,96,48
1729,96,86
1728,96,64
1727,96,40
1726,96,42
1725,96,52
1724,96,60
1723,96,49
1722,96,51
1721,96,62
1720,96,47
1719,96,5
1718,96,28
1717,97,0
1716,96,85
1715,96,61
1714,96,74
1713,96,47
1712,96,40
1711,96,50
1710,96,63
1709,96,49
1708,96,33
1707,96,57
1706,96,85
1705,96,70
1704,96,62
1703,96,51
1702,96,51
1701,95,64
1700,92,98
1699,97,5
1698,96,71
1697,96,40
1696,96,11
1695,96,29
1694,96,52
1693,96,35
1692,96,37
1691,96,29
1690,96,24
1689,96,12
1688,96,12
1687,96,10
1686,96,22
1685,94,73
1684,96,54
1683,96,49
1682,96,41
1681,96,17
1680,96,19
1679,96,14
1678,96,10
1677,96,36
1676,96,36
1675,95,38
1674,96,47
1673,96,8
1672,96,26
1671,96,14
1670,96,46
1669,95,80
1668,96,47
1667,96,23
1666,95,99
1665,96,18
1664,96,8
1663,96,15
1662,96,10
1661,96,13
1660,96,4
1659,95,88
1658,96,13
1657,96,11
1656,96,22
1655,96,23
1654,95,14
1653,60,48
1652,96,81
1651,96,60
1650,96,13
1649,96,24
1648,96,24
1647,96,60
1646,96,49
1645,96,20
1644,96,16
1643,96,29
1642,96,15
1641,95,93
1640,96,13
1639,96,20
1638,96,33
1637,96,42
1636,96,75
1635,96,10
1634,96,39
1633,96,21
1632,96,4
1631,95,97
1630,95,93
1629,96,6
1628,96,41
1627,96,29
1626,95,86
1625,95,96
1624,96,52
1623,95,65
1622,96,11
1621,95,90
1620,96,1
1619,96,29
1618,96,16
1617,96,49
1616,96,31
1615,96,46
1614,96,25
1613,96,27
1612,96,25
1611,96,16
1610,96,30
1609,96,33
1608,96,30
1607,96,24
1606,96,34
1605,96,6
1604,96,29
1603,96,33
1602,96,38
1601,96,34
1600,96,35
1599,96,28
1598,96,44
1597,96,31
1596,96,27
1595,96,37
1594,96,57
1593,96,27
1592,96,38
1591,96,32
1590,96,29
1589,96,51
1588,96,46
1587,96,49
1586,96,43
1585,96,57
1584,96,51
1583,96,35
1582,96,62
1581,96,52
1580,96,28
1579,96,35
1578,96,50
1577,96,76
1576,97,53
1575,96,84
1574,96,59
1573,96,56
1572,96,56
1571,96,55
1570,96,11
1569,96,82
1568,96,84
1567,96,52
1566,96,33
1565,96,57
1564,96,66
1563,96,55
1562,96,54
1561,96,77
1560,89,96
1559,97,75
1558,100,61
1557,97,5
1556,96,74
1555,96,46
1554,96,71
1553,96,60
1552,96,65
1551,96,44
1550,96,30
1549,96,70
1548,96,65
1547,96,46
1546,96,21
1545,96,10
1544,96,54
1543,96,81
1542,96,79
1541,97,12
1540,96,15
1539,96,46
1538,96,97
1537,96,74
1536,96,39
1535,96,32
1534,96,47
1533,97,24
1532,96,96
1531,96,80
1530,96,37
1529,96,8
1528,96,69
1527,96,76
1526,96,43
1525,96,19
1524,96,62
1523,96,51
1522,96,48
1521,96,68
1520,97,18
1519,96,57
1518,96,82
1517,96,63
1516,96,66
1515,96,69
1514,96,52
1513,96,31
1512,96,38
1511,96,45
1510,96,54
1509,96,51
1508,95,99
1507,99,58
1506,98,77
1505,97,9
1504,96,63
1503,96,33
1502,95,98
1501,96,29
1500,96,35
1499,96,44
1498,96,41
1497,96,31
1496,96,28
1495,96,53
1494,96,26
1493,96,22
1492,96,16
1491,96,5
1490,96,42
1489,96,89
1488,96,60
1487,96,53
1486,96,40
1485,96,34
1484,96,21
1483,96,35
1482,96,1
1481,96,18
1480,96,23
1479,96,24
1478,96,16
1477,96,15
1476,96,83
1475,96,39
1474,95,89
1473,95,82
1472,96,73
1471,96,83
1470,96,36
1469,96,11
1468,96,15
1467,96,26
1466,96,19
1465,96,12
1464,96,51
1463,96,22
1462,96,27
1461,96,10
1460,96,10
1459,95,92
1458,96,74
1457,95,91
1456,96,25
1455,96,48
1454,96,32
1453,96,14
1452,96,12
1451,96,30
1450,96,30
1449,96,13
1448,96,14
1447,96,41
1446,96,25
1445,96,17
1444,96,17
1443,96,11
1442,96,20
1441,96,13
1440,96,8
1439,96,21
1438,95,97
1437,95,80
1436,96,45
1435,96,40
1434,96,17
1433,96,28
1432,96,21
1431,96,5
1430,96,44
1429,96,39
1428,96,34
1427,96,19
1426,96,20
1425,96,14
1424,96,14
1423,96,58
1422,96,15
1421,96,20
1420,96,2
1419,96,76
1418,96,73
1417,96,52
1416,96,26
1415,96,38
1414,96,31
1413,96,31
1412,96,14
1411,96,32
1410,96,35
1409,96,40
1408,96,34
1407,96,32
1406,96,18
1405,96,56
1404,96,63
1403,96,24
1402,96,22
1401,96,31
1400,96,23
1399,96,39
1398,96,64
1397,96,41
1396,96,46
1395,96,62
1394,97,3
1393,96,71
1392,96,43
1391,96,30
1390,96,40
1389,96,35
1388,96,27
1387,96,59
1386,96,70
1385,96,57
1384,96,63
1383,96,63
1382,96,60
1381,96,53
1380,96,41
1379,96,54
1378,96,48
1377,96,55
1376,96,53
1375,96,76
1374,96,94
1373,96,89
1372,96,52
1371,96,51
1370,96,50
1369,96,46
1368,96,79
1367,96,73
1366,96,63
1365,96,63
1364,96,43
1363,96,53
1362,96,86
1361,96,83
1360,96,80
1359,96,73
1358,96,55
1357,96,70
1356,96,65
1355,96,58
1354,96,82
1353,96,70
1352,96,63
1351,96,68
1350,96,63
1349,96,80
1348,96,65
1347,96,60
1346,96,82
1345,96,83
1344,96,71
1343,96,69
1342,96,77
1341,96,56
1340,96,71
1339,96,94
1338,96,75
1337,96,88
1336,97,0
1335,96,84
1334,96,69
1333,96,80
1332,96,78
1331,96,84
1330,96,81
1329,96,93
1328,96,77
1327,96,83
1326,96,99
1325,96,77
1324,96,73
1323,96,74
1322,96,98
1321,96,74
1320,96,85
1319,96,84
1318,96,78
1317,96,83
1316,96,97
1315,96,87
1314,96,90
1313,96,83
1312,96,93
1311,96,93
1310,96,89
1309,96,92
1308,96,98
1307,96,91
1306,96,89
1305,97,1
1304,96,93
1303,97,1
1302,97,11
1301,96,93
1300,96,91
1299,97,1
1298,96,92
1297,96,91
1296,96,87
1295,96,86
1294,97,2
1293,96,84
1292,97,8
1291,96,94
1290,96,98
1289,96,96
1288,96,96
1287,96,87
1286,96,93
1285,97,10
1284,97,9
1283,96,88
1282,96,94
1281,97,3
1280,97,0
1279,96,96
1278,97,3
1277,96,94
1276,96,91
1275,97,0
1274,97,4
1273,96,88
1272,96,92
1271,96,91
1270,97,9
1269,96,83
1268,96,93
1267,96,99
1266,96,80
1265,96,76
1264,96,81
1263,96,81
1262,96,79
1261,96,78
1260,96,66
1259,96,83
1258,96,76
1257,96,68
1256,96,69
1255,96,67
1254,96,84
1253,96,63
1252,96,61
1251,96,58
1250,96,60
1249,96,63
1248,96,45
1247,96,49
1246,96,53
1245,96,44
1244,96,44
1243,96,52
1242,96,44
1241,96,42
1240,96,32
1239,96,17
1238,96,32
1237,96,35
1236,96,15
1235,96,12
1234,96,33
1233,96,14
1232,96,11
1231,96,24
1230,96,3
1229,95,95
1228,95,92
1227,96,0
1226,96,4
1225,95,88
1224,95,71
1223,95,80
1222,95,60
1221,95,81
1220,95,54
1219,95,49
1218,95,49
1217,95,44
1216,95,43
1215,95,21
1214,95,19
1213,95,40
1212,95,1
1211,95,6
1210,95,11
1209,94,78
1208,94,93
1207,94,79
1206,94,70
1205,94,42
1204,94,60
1203,94,38
1202,94,47
1201,94,56
1200,94,29
1199,94,23
1198,94,26
1197,93,98
1196,94,3
1195,94,5
1194,93,90
1193,94,0
1192,94,3
1191,94,4
1190,93,93
1189,94,4
1188,93,72
1187,93,57
1186,93,62
1185,93,67
1184,93,53
1183,93,53
1182,93,50
1181,93,60
1180,93,11
1179,93,32
1178,93,14
1177,93,15
1176,92,94
1175,92,94
1174,92,74
1173,92,79
1172,92,59
1171,92,33
1170,92,35
1169,92,13
1168,92,15
1167,92,2
1166,91,73
1165,91,62
1164,91,61
1163,91,57
1162,91,35
1161,91,59
1160,91,27
1159,91,24
1158,90,95
1157,90,78
1156,91,3
1155,90,91
1154,90,96
1153,90,67
1152,90,14
1151,90,35
1150,90,16
1149,90,30
1148,90,27
1147,89,96
1146,90,30
1145,89,77
1144,90,13
1143,90,2
1142,89,68
1141,89,56
1140,89,78
1139,89,68
1138,89,90
1137,89,69
1136,89,25
1135,89,53
1134,89,78
1133,89,41
1132,89,27
1131,89,26
1130,89,24
1129,89,13
1128,89,53
1127,89,13
1126,89,13
1125,88,84
1124,88,75
1123,88,92
1122,88,85
1121,88,61
1120,88,96
1119,88,64
1118,88,34
1117,88,39
1116,88,66
1115,88,67
1114,88,35
1113,87,92
1112,88,27
1111,88,7
1110,88,6
1109,87,88
1108,87,83
1107,87,47
1106,87,22
1105,87,32
1104,87,61
1103,86,98
1102,87,1
1101,87,7
1100,87,0
1099,86,72
1098,86,93
1097,86,75
1096,86,40
1095,86,68
1094,86,60
1093,86,53
1092,86,58
1091,86,81
1090,86,67
1089,86,25
1088,86,30
1087,86,8
1086,85,94
1085,85,95
1084,86,21
1083,85,92
1082,85,42
1081,86,15
1080,86,2
1079,85,68
1078,85,63
1077,85,56
1076,85,77
1075,85,82
1074,85,83
1073,85,83
1072,85,61
1071,85,66
1070,85,30
1069,85,98
1068,85,54
1067,85,58
1066,85,39
1065,85,54
1064,85,61
1063,85,41
1062,85,71
1061,85,36
1060,85,28
1059,85,47
1058,85,40
1057,85,26
1056,85,20
1055,85,28
1054,85,18
1053,85,53
1052,85,78
1051,85,30
1050,84,88
1049,85,36
1048,85,15
1047,85,5
1046,85,58
1045,85,11
1044,85,5
1043,85,41
1042,85,27
1041,84,84
1040,84,89
1039,84,95
1038,84,77
1037,85,9
1036,84,62
1035,84,73
1034,84,59
1033,84,55
1032,84,19
1031,84,48
1030,84,27
1029,84,10
1028,84,37
1027,83,88
1026,84,10
1025,84,9
1024,83,78
1023,83,99
1022,83,61
1021,83,68
1020,83,46
1019,83,32
1018,83,17
1017,83,29
1016,83,19
1015,83,33
1014,83,50
1013,83,35
1012,83,50
1011,83,48
1010,83,27
1009,83,33
1008,83,66
1007,83,53
1006,83,34
1005,83,39
1004,83,44
1003,83,72
1002,83,47
1001,83,70
1000,83,63
999,83,43
998,83,25
997,83,31
996,83,49
995,83,40
994,83,66
993,83,60
992,83,47
991,83,69
990,83,42
989,83,57
988,83,71
987,83,88
986,83,64
985,83,53
984,83,46
983,83,30
982,83,49
981,83,52
980,83,63
979,83,20
978,83,63
977,83,59
976,83,42
975,83,56
974,83,71
973,83,69
972,83,81
971,83,30
970,83,78
969,83,71
968,83,94
967,83,64
966,84,4
965,83,89
964,84,5
963,84,21
962,83,89
961,84,4
960,83,59
959,83,51
958,83,53
957,83,46
956,83,70
955,83,60
954,83,38
953,83,18
952,83,13
951,83,45
950,83,4
949,82,73
948,82,85
947,82,90
946,83,7
945,82,94
944,82,53
943,82,69
942,82,56
941,82,83
940,82,95
939,82,72
938,82,71
937,82,94
936,82,69
935,82,48
934,82,76
933,82,33
932,82,37
931,82,52
930,82,71
929,82,65
928,82,21
927,82,45
926,82,37
925,82,55
924,82,47
923,82,34
922,82,65
921,82,27
920,81,99
919,82,45
918,82,45
917,82,43
916,82,27
915,82,0
914,82,19
913,82,12
912,82,31
911,82,56
910,82,78
909,82,13
908,82,40
907,82,25
906,82,12
905,82,50
904,82,40
903,82,45
902,82,37
901,82,27
900,82,51
899,82,15
898,82,34
897,82,48
896,82,59
895,82,76
894,82,38
893,82,46
892,82,49
891,82,62
890,82,3
889,82,46
888,82,16
887,82,22
886,82,73
885,82,27
884,82,79
883,82,64
882,82,89
881,82,94
880,83,3
879,82,64
878,82,43
877,82,98
876,83,0
875,83,46
874,83,24
873,83,13
872,82,85
871,83,64
870,83,45
869,83,13
868,83,35
867,82,96
866,83,35
865,83,27
864,83,82
863,83,93
862,83,78
861,83,88
860,84,30
859,84,5
858,83,73
857,84,15
856,84,12
855,84,48
854,84,68
853,84,83
852,84,73
851,84,47
850,84,69
849,84,98
848,85,21
847,85,43
846,85,50
845,85,12
844,85,12
843,85,56
842,86,5
841,85,41
840,85,30
839,85,51
838,85,43
837,85,36
836,85,16
835,85,57
834,85,52
833,85,28
832,86,15
831,85,60
830,85,89
829,85,73
828,86,17
827,85,75
826,86,35
825,86,97
824,86,28
823,86,25
822,87,9
821,86,71
820,86,73
819,87,50
818,86,84
817,86,99
816,86,42
815,87,70
814,87,0
813,87,59
812,87,85
811,87,44
810,87,59
809,88,8
808,87,68
807,87,91
806,87,79
805,87,77
804,87,29
803,87,92
802,88,10
801,88,4
800,88,18
799,88,29
798,87,99
797,88,5
796,88,52
795,88,51
794,88,49
793,88,26
792,88,41
791,88,29
790,88,85
789,88,64
788,88,54
787,88,30
786,88,33
785,88,9
784,88,86
783,88,30
782,87,78
781,88,27
780,88,31
779,88,41
778,88,70
777,88,75
776,88,75
775,88,30
774,88,38
773,88,41
772,88,75
771,88,59
770,88,70
769,88,65
768,88,85
767,89,7
766,88,92
765,89,15
764,88,29
763,88,61
762,89,28
761,88,61
760,88,57
759,88,60
758,88,36
757,88,80
756,88,69
755,88,82
754,88,74
753,88,60
752,89,22
751,88,26
750,89,24
749,88,81
748,88,65
747,88,83
746,88,95
745,88,59
744,88,78
743,88,60
742,88,64
741,89,9
740,88,99
739,88,52
738,88,46
737,88,90
736,88,70
735,88,86
734,88,15
733,88,72
732,88,4
731,88,27
730,89,10
729,88,65
728,87,97
727,88,30
726,88,61
725,88,10
724,88,13
723,88,94
722,89,16
721,88,50
720,88,68
719,88,68
718,88,35
717,88,39
716,88,79
715,88,71
714,88,81
713,88,83
712,89,10
711,88,84
710,88,62
709,89,13
708,88,90
707,88,46
706,88,87
705,89,24
704,88,85
703,89,33
702,89,49
701,89,6
700,88,90
699,88,95
698,88,52
697,89,34
696,89,33
695,88,31
694,88,30
693,88,31
692,88,84
691,89,27
690,88,73
689,88,59
688,87,84
687,89,14
686,87,88
685,88,70
684,88,32
683,87,68
682,88,8
681,88,5
680,88,40
679,88,67
678,88,25
677,87,86
676,88,24
675,88,83
674,88,33
673,88,29
672,87,0
671,87,18
670,88,62
669,88,92
668,90,87
667,88,87
666,88,20
665,87,89
664,88,44
663,88,19
662,88,89
661,88,32
660,87,65
659,87,17
658,87,43
657,87,54
656,88,89
655,87,52
654,87,26
653,87,56
652,88,9
651,86,44
650,87,59
649,88,78
648,87,49
647,88,12
646,86,87
645,86,49
644,87,96
643,87,10
642,86,32
641,87,23
640,86,19
639,86,21
638,85,8
637,86,38
636,84,79
635,85,78
634,87,25
633,86,5
632,86,43
631,85,14
630,84,26
629,85,46
628,85,19
627,85,56
626,81,40
625,83,67
624,82,91
623,84,24
622,84,8
621,80,98
620,83,97
619,86,27
618,85,43
617,80,27
616,76,74
615,86,20
614,85,22
613,85,6
612,82,21
611,79,57
610,82,88
609,82,88
608,76,16
607,81,32
606,85,40
605,81,40
604,79,77
603,80,32
602,81,36
601,77,93
600,83,53
