Created as New Dataset;Sample 052 By Administrator Date donderdag, februari 26 2026
cm-1;%T
4000,00;99,20
3999,00;99,46
3998,00;99,05
3997,00;98,94
3996,00;99,15
3995,00;99,13
3994,00;99,38
3993,00;99,08
3992,00;99,13
3991,00;99,01
3990,00;99,14
3989,00;98,50
3988,00;98,95
3987,00;99,07
3986,00;99,09
3985,00;99,21
3984,00;99,29
3983,00;98,89
3982,00;99,21
3981,00;98,98
3980,00;98,93
3979,00;98,97
3978,00;99,07
3977,00;99,03
3976,00;99,14
3975,00;98,91
3974,00;98,90
3973,00;99,46
3972,00;99,50
3971,00;99,01
3970,00;99,00
3969,00;98,99
3968,00;98,80
3967,00;99,24
3966,00;99,23
3965,00;98,80
3964,00;99,09
3963,00;99,05
3962,00;98,74
3961,00;99,18
3960,00;99,11
3959,00;98,90
3958,00;98,90
3957,00;99,04
3956,00;99,49
3955,00;99,37
3954,00;98,93
3953,00;98,95
3952,00;99,06
3951,00;99,24
3950,00;99,10
3949,00;99,47
3948,00;99,07
3947,00;98,77
3946,00;98,93
3945,00;99,17
3944,00;98,98
3943,00;98,45
3942,00;98,96
3941,00;99,09
3940,00;98,97
3939,00;99,52
3938,00;99,27
3937,00;99,04
3936,00;98,94
3935,00;98,97
3934,00;99,11
3933,00;99,12
3932,00;99,12
3931,00;99,25
3930,00;98,96
3929,00;99,14
3928,00;99,10
3927,00;99,31
3926,00;99,07
3925,00;99,28
3924,00;99,02
3923,00;99,35
3922,00;98,92
3921,00;99,38
3920,00;99,38
3919,00;98,91
3918,00;99,14
3917,00;99,19
3916,00;99,00
3915,00;99,20
3914,00;99,14
3913,00;98,85
3912,00;98,93
3911,00;99,08
3910,00;99,29
3909,00;98,99
3908,00;99,25
3907,00;99,33
3906,00;98,96
3905,00;98,88
3904,00;99,03
3903,00;99,10
3902,00;98,81
3901,00;98,61
3900,00;98,97
3899,00;99,82
3898,00;99,05
3897,00;98,92
3896,00;99,26
3895,00;99,09
3894,00;98,93
3893,00;99,20
3892,00;98,90
3891,00;98,59
3890,00;99,35
3889,00;99,04
3888,00;99,11
3887,00;99,29
3886,00;98,91
3885,00;99,12
3884,00;98,76
3883,00;98,81
3882,00;98,98
3881,00;98,61
3880,00;98,59
3879,00;99,18
3878,00;99,11
3877,00;99,02
3876,00;98,97
3875,00;99,41
3874,00;98,63
3873,00;98,96
3872,00;99,24
3871,00;99,04
3870,00;98,46
3869,00;99,72
3868,00;98,92
3867,00;99,41
3866,00;99,44
3865,00;98,55
3864,00;99,23
3863,00;98,97
3862,00;98,38
3861,00;99,19
3860,00;99,16
3859,00;99,26
3858,00;99,15
3857,00;98,90
3856,00;99,10
3855,00;98,69
3854,00;98,98
3853,00;98,68
3852,00;98,81
3851,00;98,92
3850,00;99,01
3849,00;98,89
3848,00;98,74
3847,00;99,12
3846,00;99,14
3845,00;99,16
3844,00;99,07
3843,00;99,14
3842,00;99,09
3841,00;98,53
3840,00;99,07
3839,00;98,65
3838,00;99,14
3837,00;98,87
3836,00;99,12
3835,00;99,25
3834,00;98,80
3833,00;98,93
3832,00;99,09
3831,00;99,33
3830,00;99,27
3829,00;99,15
3828,00;98,88
3827,00;99,09
3826,00;98,96
3825,00;98,86
3824,00;98,99
3823,00;99,35
3822,00;98,77
3821,00;99,70
3820,00;98,88
3819,00;98,83
3818,00;99,31
3817,00;99,02
3816,00;98,76
3815,00;98,83
3814,00;98,97
3813,00;99,04
3812,00;99,07
3811,00;99,09
3810,00;98,86
3809,00;98,84
3808,00;98,62
3807,00;98,41
3806,00;99,43
3805,00;98,99
3804,00;98,82
3803,00;99,05
3802,00;99,41
3801,00;97,69
3800,00;99,02
3799,00;99,00
3798,00;98,65
3797,00;99,12
3796,00;99,05
3795,00;99,13
3794,00;99,36
3793,00;99,09
3792,00;99,03
3791,00;98,93
3790,00;99,36
3789,00;99,12
3788,00;98,98
3787,00;98,90
3786,00;99,06
3785,00;98,93
3784,00;99,21
3783,00;98,97
3782,00;99,34
3781,00;98,78
3780,00;98,87
3779,00;98,88
3778,00;99,16
3777,00;98,93
3776,00;99,15
3775,00;98,90
3774,00;99,24
3773,00;99,05
3772,00;99,06
3771,00;99,12
3770,00;99,07
3769,00;99,23
3768,00;98,60
3767,00;98,94
3766,00;99,41
3765,00;99,00
3764,00;98,92
3763,00;99,01
3762,00;99,04
3761,00;99,07
3760,00;99,47
3759,00;99,19
3758,00;98,89
3757,00;98,70
3756,00;99,10
3755,00;99,16
3754,00;99,33
3753,00;98,89
3752,00;97,58
3751,00;98,93
3750,00;98,24
3749,00;97,74
3748,00;98,64
3747,00;98,70
3746,00;98,98
3745,00;99,80
3744,00;97,81
3743,00;98,97
3742,00;98,74
3741,00;99,08
3740,00;99,06
3739,00;99,40
3738,00;98,75
3737,00;98,01
3736,00;98,42
3735,00;98,55
3734,00;98,97
3733,00;99,22
3732,00;98,23
3731,00;98,85
3730,00;98,88
3729,00;98,93
3728,00;99,12
3727,00;98,49
3726,00;98,93
3725,00;99,29
3724,00;98,89
3723,00;99,06
3722,00;99,37
3721,00;98,70
3720,00;99,07
3719,00;99,08
3718,00;98,89
3717,00;99,19
3716,00;99,18
3715,00;99,05
3714,00;98,83
3713,00;98,62
3712,00;97,92
3711,00;98,48
3710,00;98,45
3709,00;98,82
3708,00;99,14
3707,00;98,95
3706,00;99,51
3705,00;99,11
3704,00;99,00
3703,00;98,68
3702,00;99,07
3701,00;98,92
3700,00;98,97
3699,00;98,90
3698,00;98,91
3697,00;99,02
3696,00;99,06
3695,00;98,74
3694,00;99,15
3693,00;98,90
3692,00;98,47
3691,00;99,16
3690,00;99,57
3689,00;98,36
3688,00;97,72
3687,00;98,78
3686,00;99,00
3685,00;98,98
3684,00;98,98
3683,00;99,10
3682,00;98,82
3681,00;98,57
3680,00;98,97
3679,00;99,18
3678,00;98,67
3677,00;98,61
3676,00;99,40
3675,00;98,89
3674,00;98,36
3673,00;98,61
3672,00;98,79
3671,00;99,19
3670,00;99,16
3669,00;98,50
3668,00;98,88
3667,00;98,75
3666,00;98,70
3665,00;98,94
3664,00;98,72
3663,00;99,16
3662,00;98,63
3661,00;98,78
3660,00;98,93
3659,00;99,14
3658,00;98,91
3657,00;98,69
3656,00;99,38
3655,00;98,74
3654,00;98,85
3653,00;99,20
3652,00;99,02
3651,00;99,26
3650,00;98,53
3649,00;98,04
3648,00;99,52
3647,00;98,90
3646,00;99,00
3645,00;98,96
3644,00;98,72
3643,00;98,78
3642,00;98,78
3641,00;98,60
3640,00;98,87
3639,00;98,84
3638,00;98,87
3637,00;98,89
3636,00;99,01
3635,00;99,10
3634,00;99,12
3633,00;98,58
3632,00;98,85
3631,00;98,66
3630,00;98,91
3629,00;99,28
3628,00;98,73
3627,00;98,34
3626,00;98,95
3625,00;99,13
3624,00;99,00
3623,00;99,07
3622,00;98,86
3621,00;98,60
3620,00;98,49
3619,00;98,52
3618,00;98,53
3617,00;98,76
3616,00;98,97
3615,00;98,63
3614,00;98,69
3613,00;98,65
3612,00;98,75
3611,00;98,77
3610,00;98,83
3609,00;98,50
3608,00;98,82
3607,00;99,48
3606,00;98,81
3605,00;98,84
3604,00;98,69
3603,00;98,96
3602,00;98,71
3601,00;98,80
3600,00;98,52
3599,00;98,49
3598,00;98,86
3597,00;98,86
3596,00;98,52
3595,00;99,33
3594,00;98,81
3593,00;98,93
3592,00;98,86
3591,00;98,83
3590,00;98,76
3589,00;98,98
3588,00;98,94
3587,00;98,69
3586,00;99,13
3585,00;98,64
3584,00;98,82
3583,00;98,83
3582,00;99,00
3581,00;99,13
3580,00;98,61
3579,00;98,84
3578,00;98,70
3577,00;98,87
3576,00;98,80
3575,00;99,07
3574,00;98,63
3573,00;98,89
3572,00;98,65
3571,00;99,09
3570,00;98,66
3569,00;98,60
3568,00;97,78
3567,00;98,80
3566,00;99,70
3565,00;98,95
3564,00;98,99
3563,00;98,83
3562,00;98,63
3561,00;98,67
3560,00;98,87
3559,00;98,97
3558,00;98,85
3557,00;99,12
3556,00;99,40
3555,00;98,63
3554,00;98,84
3553,00;98,74
3552,00;98,96
3551,00;98,58
3550,00;98,84
3549,00;98,42
3548,00;98,79
3547,00;98,97
3546,00;98,37
3545,00;98,54
3544,00;98,57
3543,00;98,71
3542,00;98,55
3541,00;98,62
3540,00;98,79
3539,00;98,89
3538,00;98,72
3537,00;98,47
3536,00;99,34
3535,00;98,82
3534,00;98,64
3533,00;98,76
3532,00;98,95
3531,00;98,69
3530,00;98,72
3529,00;98,72
3528,00;98,53
3527,00;98,98
3526,00;98,71
3525,00;98,83
3524,00;98,56
3523,00;98,62
3522,00;98,82
3521,00;98,86
3520,00;98,85
3519,00;98,79
3518,00;98,83
3517,00;98,70
3516,00;98,81
3515,00;98,81
3514,00;98,90
3513,00;98,92
3512,00;98,75
3511,00;98,55
3510,00;98,54
3509,00;98,55
3508,00;98,85
3507,00;98,69
3506,00;98,63
3505,00;98,99
3504,00;99,04
3503,00;98,63
3502,00;98,91
3501,00;98,85
3500,00;98,74
3499,00;99,06
3498,00;98,74
3497,00;98,89
3496,00;98,91
3495,00;98,86
3494,00;98,76
3493,00;98,81
3492,00;98,95
3491,00;98,70
3490,00;98,60
3489,00;98,68
3488,00;99,17
3487,00;98,82
3486,00;98,63
3485,00;98,57
3484,00;98,71
3483,00;98,80
3482,00;98,91
3481,00;98,46
3480,00;98,83
3479,00;98,58
3478,00;98,67
3477,00;98,77
3476,00;98,66
3475,00;98,71
3474,00;98,73
3473,00;99,13
3472,00;98,72
3471,00;98,73
3470,00;99,03
3469,00;98,77
3468,00;98,94
3467,00;98,87
3466,00;98,63
3465,00;98,88
3464,00;98,88
3463,00;98,77
3462,00;98,58
3461,00;98,80
3460,00;98,84
3459,00;99,00
3458,00;98,50
3457,00;98,82
3456,00;98,80
3455,00;98,85
3454,00;99,14
3453,00;98,62
3452,00;98,75
3451,00;98,65
3450,00;98,68
3449,00;98,53
3448,00;98,93
3447,00;98,93
3446,00;98,82
3445,00;98,80
3444,00;98,91
3443,00;98,64
3442,00;98,82
3441,00;98,83
3440,00;98,81
3439,00;98,91
3438,00;98,81
3437,00;98,63
3436,00;98,75
3435,00;99,00
3434,00;98,94
3433,00;99,03
3432,00;98,98
3431,00;98,70
3430,00;98,59
3429,00;98,75
3428,00;98,72
3427,00;99,01
3426,00;98,77
3425,00;98,60
3424,00;98,33
3423,00;98,54
3422,00;99,22
3421,00;98,97
3420,00;98,57
3419,00;98,95
3418,00;98,75
3417,00;98,77
3416,00;98,82
3415,00;98,84
3414,00;98,26
3413,00;98,77
3412,00;98,74
3411,00;98,78
3410,00;98,71
3409,00;98,90
3408,00;98,83
3407,00;98,63
3406,00;99,01
3405,00;98,66
3404,00;98,88
3403,00;98,82
3402,00;98,60
3401,00;98,50
3400,00;98,93
3399,00;98,85
3398,00;98,85
3397,00;98,92
3396,00;99,05
3395,00;99,02
3394,00;99,03
3393,00;98,72
3392,00;98,93
3391,00;98,59
3390,00;98,79
3389,00;98,64
3388,00;98,75
3387,00;98,84
3386,00;98,50
3385,00;98,83
3384,00;98,93
3383,00;98,76
3382,00;98,85
3381,00;98,87
3380,00;98,57
3379,00;98,42
3378,00;98,69
3377,00;98,58
3376,00;98,70
3375,00;98,84
3374,00;98,79
3373,00;99,04
3372,00;98,89
3371,00;98,90
3370,00;98,66
3369,00;98,61
3368,00;98,91
3367,00;98,75
3366,00;98,96
3365,00;98,96
3364,00;98,83
3363,00;98,67
3362,00;98,68
3361,00;98,75
3360,00;98,86
3359,00;98,74
3358,00;98,96
3357,00;98,49
3356,00;98,70
3355,00;99,00
3354,00;99,37
3353,00;98,64
3352,00;98,90
3351,00;98,39
3350,00;98,79
3349,00;98,66
3348,00;98,72
3347,00;98,81
3346,00;98,73
3345,00;98,87
3344,00;98,50
3343,00;98,66
3342,00;98,50
3341,00;98,74
3340,00;98,60
3339,00;98,69
3338,00;98,57
3337,00;98,84
3336,00;98,80
3335,00;98,66
3334,00;98,80
3333,00;98,63
3332,00;98,67
3331,00;98,69
3330,00;98,67
3329,00;98,70
3328,00;98,85
3327,00;98,84
3326,00;98,77
3325,00;98,86
3324,00;98,83
3323,00;98,71
3322,00;99,03
3321,00;98,39
3320,00;98,62
3319,00;98,77
3318,00;98,72
3317,00;98,98
3316,00;99,04
3315,00;98,82
3314,00;98,73
3313,00;98,63
3312,00;98,90
3311,00;99,17
3310,00;98,42
3309,00;98,87
3308,00;98,58
3307,00;98,62
3306,00;98,90
3305,00;99,01
3304,00;98,72
3303,00;98,83
3302,00;99,09
3301,00;98,66
3300,00;98,79
3299,00;98,69
3298,00;98,80
3297,00;98,72
3296,00;98,89
3295,00;98,78
3294,00;98,97
3293,00;98,77
3292,00;98,92
3291,00;98,91
3290,00;98,78
3289,00;98,94
3288,00;98,88
3287,00;98,71
3286,00;99,11
3285,00;98,66
3284,00;98,64
3283,00;98,73
3282,00;98,83
3281,00;98,89
3280,00;98,74
3279,00;98,82
3278,00;98,67
3277,00;98,78
3276,00;98,83
3275,00;98,68
3274,00;98,92
3273,00;98,75
3272,00;98,41
3271,00;98,67
3270,00;98,53
3269,00;98,79
3268,00;98,81
3267,00;98,85
3266,00;98,58
3265,00;98,68
3264,00;98,75
3263,00;98,75
3262,00;98,91
3261,00;98,68
3260,00;98,72
3259,00;98,77
3258,00;98,78
3257,00;98,87
3256,00;98,75
3255,00;98,91
3254,00;98,60
3253,00;98,68
3252,00;98,82
3251,00;98,87
3250,00;99,00
3249,00;98,90
3248,00;98,76
3247,00;98,63
3246,00;98,64
3245,00;99,10
3244,00;98,78
3243,00;98,83
3242,00;98,61
3241,00;98,62
3240,00;98,53
3239,00;98,80
3238,00;98,69
3237,00;98,77
3236,00;98,62
3235,00;98,92
3234,00;98,87
3233,00;98,79
3232,00;98,86
3231,00;98,60
3230,00;98,65
3229,00;98,78
3228,00;98,67
3227,00;98,61
3226,00;98,92
3225,00;98,86
3224,00;98,79
3223,00;98,99
3222,00;99,01
3221,00;98,54
3220,00;98,59
3219,00;98,76
3218,00;98,75
3217,00;98,70
3216,00;98,73
3215,00;98,64
3214,00;98,84
3213,00;98,81
3212,00;98,78
3211,00;98,81
3210,00;98,83
3209,00;98,63
3208,00;98,58
3207,00;98,55
3206,00;98,79
3205,00;99,11
3204,00;98,80
3203,00;98,81
3202,00;98,84
3201,00;99,04
3200,00;98,90
3199,00;98,76
3198,00;98,78
3197,00;98,85
3196,00;98,85
3195,00;98,81
3194,00;99,00
3193,00;98,56
3192,00;98,64
3191,00;98,85
3190,00;98,50
3189,00;98,88
3188,00;99,03
3187,00;98,93
3186,00;98,86
3185,00;98,89
3184,00;98,68
3183,00;98,85
3182,00;98,70
3181,00;98,98
3180,00;98,80
3179,00;98,87
3178,00;98,22
3177,00;98,55
3176,00;98,84
3175,00;98,99
3174,00;99,01
3173,00;98,68
3172,00;98,73
3171,00;98,62
3170,00;98,86
3169,00;98,63
3168,00;98,71
3167,00;98,72
3166,00;98,79
3165,00;99,01
3164,00;98,88
3163,00;98,96
3162,00;98,95
3161,00;98,89
3160,00;99,08
3159,00;99,11
3158,00;98,68
3157,00;98,97
3156,00;98,73
3155,00;98,99
3154,00;98,98
3153,00;98,69
3152,00;98,63
3151,00;98,69
3150,00;98,79
3149,00;98,70
3148,00;98,71
3147,00;98,73
3146,00;98,86
3145,00;98,77
3144,00;99,17
3143,00;98,67
3142,00;99,00
3141,00;98,73
3140,00;98,76
3139,00;98,74
3138,00;98,61
3137,00;98,81
3136,00;98,87
3135,00;98,86
3134,00;98,78
3133,00;99,08
3132,00;98,82
3131,00;98,95
3130,00;98,84
3129,00;98,81
3128,00;98,87
3127,00;98,71
3126,00;98,65
3125,00;98,87
3124,00;98,72
3123,00;98,76
3122,00;98,94
3121,00;98,64
3120,00;98,79
3119,00;99,17
3118,00;98,94
3117,00;98,68
3116,00;98,99
3115,00;98,88
3114,00;98,93
3113,00;98,76
3112,00;98,80
3111,00;98,85
3110,00;98,95
3109,00;98,67
3108,00;98,58
3107,00;98,59
3106,00;98,66
3105,00;98,62
3104,00;98,75
3103,00;98,91
3102,00;98,82
3101,00;98,82
3100,00;98,92
3099,00;99,06
3098,00;98,66
3097,00;98,66
3096,00;98,79
3095,00;99,06
3094,00;98,87
3093,00;99,04
3092,00;98,75
3091,00;98,63
3090,00;98,97
3089,00;98,68
3088,00;98,92
3087,00;98,57
3086,00;98,61
3085,00;98,83
3084,00;99,01
3083,00;98,98
3082,00;98,79
3081,00;98,93
3080,00;98,74
3079,00;99,15
3078,00;99,25
3077,00;98,91
3076,00;98,93
3075,00;98,75
3074,00;99,11
3073,00;98,87
3072,00;98,56
3071,00;99,06
3070,00;98,70
3069,00;98,74
3068,00;98,98
3067,00;98,96
3066,00;98,84
3065,00;98,74
3064,00;98,98
3063,00;98,81
3062,00;98,97
3061,00;99,00
3060,00;98,77
3059,00;98,92
3058,00;98,66
3057,00;99,11
3056,00;98,76
3055,00;98,95
3054,00;98,77
3053,00;98,82
3052,00;99,02
3051,00;98,86
3050,00;98,84
3049,00;98,97
3048,00;98,97
3047,00;98,79
3046,00;98,81
3045,00;99,01
3044,00;98,90
3043,00;98,93
3042,00;98,88
3041,00;99,20
3040,00;98,84
3039,00;98,91
3038,00;98,81
3037,00;99,07
3036,00;98,88
3035,00;99,02
3034,00;98,78
3033,00;98,92
3032,00;98,93
3031,00;99,03
3030,00;99,08
3029,00;98,83
3028,00;98,88
3027,00;98,73
3026,00;98,71
3025,00;98,85
3024,00;99,01
3023,00;98,76
3022,00;98,78
3021,00;99,03
3020,00;98,95
3019,00;98,75
3018,00;99,12
3017,00;98,98
3016,00;98,78
3015,00;99,11
3014,00;99,07
3013,00;98,89
3012,00;98,93
3011,00;98,98
3010,00;98,90
3009,00;99,02
3008,00;98,68
3007,00;98,86
3006,00;99,02
3005,00;99,05
3004,00;98,81
3003,00;98,87
3002,00;98,89
3001,00;98,94
3000,00;98,99
2999,00;98,90
2998,00;98,81
2997,00;98,94
2996,00;99,06
2995,00;98,97
2994,00;99,02
2993,00;98,82
2992,00;98,77
2991,00;98,98
2990,00;98,95
2989,00;98,93
2988,00;98,96
2987,00;98,98
2986,00;98,95
2985,00;99,25
2984,00;98,84
2983,00;99,06
2982,00;98,89
2981,00;98,68
2980,00;98,89
2979,00;98,75
2978,00;99,10
2977,00;98,88
2976,00;98,97
2975,00;98,86
2974,00;98,80
2973,00;99,06
2972,00;98,64
2971,00;98,88
2970,00;99,05
2969,00;98,83
2968,00;98,82
2967,00;98,89
2966,00;98,75
2965,00;98,98
2964,00;98,96
2963,00;98,77
2962,00;99,00
2961,00;98,87
2960,00;99,10
2959,00;98,89
2958,00;99,00
2957,00;98,99
2956,00;98,99
2955,00;99,01
2954,00;98,78
2953,00;98,90
2952,00;98,86
2951,00;98,95
2950,00;99,13
2949,00;99,00
2948,00;98,90
2947,00;99,11
2946,00;98,81
2945,00;99,06
2944,00;99,04
2943,00;99,05
2942,00;98,99
2941,00;98,97
2940,00;98,94
2939,00;98,93
2938,00;98,69
2937,00;98,93
2936,00;99,00
2935,00;99,09
2934,00;98,95
2933,00;99,18
2932,00;99,00
2931,00;99,15
2930,00;98,89
2929,00;98,91
2928,00;98,85
2927,00;99,17
2926,00;98,93
2925,00;98,96
2924,00;99,14
2923,00;98,95
2922,00;98,83
2921,00;99,07
2920,00;98,90
2919,00;98,88
2918,00;99,03
2917,00;99,13
2916,00;98,91
2915,00;98,88
2914,00;99,23
2913,00;98,96
2912,00;98,82
2911,00;99,05
2910,00;98,90
2909,00;99,14
2908,00;99,09
2907,00;98,88
2906,00;98,88
2905,00;99,10
2904,00;99,02
2903,00;98,95
2902,00;99,02
2901,00;99,03
2900,00;99,11
2899,00;99,07
2898,00;98,89
2897,00;98,87
2896,00;98,94
2895,00;99,08
2894,00;99,13
2893,00;98,80
2892,00;99,02
2891,00;99,14
2890,00;98,89
2889,00;98,89
2888,00;99,05
2887,00;99,01
2886,00;99,13
2885,00;99,05
2884,00;98,95
2883,00;98,94
2882,00;99,27
2881,00;99,01
2880,00;99,02
2879,00;99,08
2878,00;99,06
2877,00;99,00
2876,00;99,28
2875,00;99,29
2874,00;99,01
2873,00;98,89
2872,00;98,81
2871,00;98,94
2870,00;98,87
2869,00;98,90
2868,00;98,95
2867,00;98,91
2866,00;98,97
2865,00;98,95
2864,00;99,08
2863,00;99,01
2862,00;99,21
2861,00;99,05
2860,00;99,14
2859,00;98,97
2858,00;99,24
2857,00;99,00
2856,00;99,14
2855,00;98,95
2854,00;99,00
2853,00;98,91
2852,00;99,02
2851,00;98,96
2850,00;99,04
2849,00;99,08
2848,00;99,00
2847,00;99,16
2846,00;99,00
2845,00;98,88
2844,00;99,13
2843,00;98,99
2842,00;98,95
2841,00;99,04
2840,00;98,92
2839,00;98,86
2838,00;99,06
2837,00;99,06
2836,00;99,26
2835,00;99,09
2834,00;99,12
2833,00;99,15
2832,00;98,91
2831,00;99,03
2830,00;99,00
2829,00;99,02
2828,00;99,02
2827,00;99,16
2826,00;98,88
2825,00;98,93
2824,00;99,03
2823,00;98,94
2822,00;99,10
2821,00;99,05
2820,00;99,05
2819,00;99,11
2818,00;99,08
2817,00;99,04
2816,00;99,05
2815,00;98,99
2814,00;99,02
2813,00;98,93
2812,00;99,12
2811,00;99,16
2810,00;99,11
2809,00;99,02
2808,00;98,92
2807,00;99,12
2806,00;99,17
2805,00;99,06
2804,00;99,04
2803,00;98,98
2802,00;98,92
2801,00;98,99
2800,00;99,05
2799,00;99,07
2798,00;98,95
2797,00;98,83
2796,00;99,15
2795,00;99,02
2794,00;98,94
2793,00;99,00
2792,00;98,94
2791,00;98,92
2790,00;99,02
2789,00;98,98
2788,00;99,05
2787,00;99,09
2786,00;98,96
2785,00;98,97
2784,00;98,94
2783,00;99,03
2782,00;99,13
2781,00;98,80
2780,00;98,91
2779,00;98,98
2778,00;99,08
2777,00;98,91
2776,00;99,10
2775,00;99,22
2774,00;98,96
2773,00;98,91
2772,00;98,89
2771,00;98,84
2770,00;99,05
2769,00;99,09
2768,00;99,03
2767,00;99,00
2766,00;98,93
2765,00;99,12
2764,00;99,08
2763,00;98,95
2762,00;98,93
2761,00;99,04
2760,00;99,02
2759,00;99,06
2758,00;99,14
2757,00;98,94
2756,00;98,96
2755,00;99,19
2754,00;98,85
2753,00;99,00
2752,00;98,98
2751,00;99,02
2750,00;98,97
2749,00;98,96
2748,00;99,05
2747,00;99,16
2746,00;99,09
2745,00;99,15
2744,00;98,86
2743,00;99,08
2742,00;99,14
2741,00;99,10
2740,00;98,93
2739,00;99,10
2738,00;99,09
2737,00;98,93
2736,00;98,79
2735,00;98,99
2734,00;99,06
2733,00;98,99
2732,00;98,93
2731,00;99,08
2730,00;99,00
2729,00;98,85
2728,00;99,00
2727,00;98,97
2726,00;98,95
2725,00;99,02
2724,00;98,96
2723,00;99,19
2722,00;98,95
2721,00;99,00
2720,00;99,01
2719,00;98,97
2718,00;99,11
2717,00;98,97
2716,00;99,01
2715,00;98,93
2714,00;98,93
2713,00;99,23
2712,00;98,98
2711,00;99,08
2710,00;99,17
2709,00;99,14
2708,00;99,02
2707,00;99,04
2706,00;98,96
2705,00;99,07
2704,00;99,07
2703,00;98,89
2702,00;98,96
2701,00;98,92
2700,00;98,91
2699,00;99,10
2698,00;98,97
2697,00;99,05
2696,00;99,10
2695,00;98,94
2694,00;98,79
2693,00;99,09
2692,00;99,14
2691,00;99,07
2690,00;99,11
2689,00;99,00
2688,00;99,03
2687,00;98,79
2686,00;98,95
2685,00;99,03
2684,00;98,99
2683,00;98,99
2682,00;98,92
2681,00;98,89
2680,00;99,00
2679,00;99,05
2678,00;99,13
2677,00;99,07
2676,00;98,98
2675,00;99,08
2674,00;99,01
2673,00;98,86
2672,00;98,83
2671,00;98,79
2670,00;99,04
2669,00;98,94
2668,00;98,92
2667,00;98,86
2666,00;98,97
2665,00;98,90
2664,00;99,00
2663,00;99,05
2662,00;98,98
2661,00;98,97
2660,00;98,89
2659,00;99,00
2658,00;99,13
2657,00;98,89
2656,00;98,94
2655,00;98,96
2654,00;99,03
2653,00;98,70
2652,00;98,83
2651,00;98,82
2650,00;98,85
2649,00;98,86
2648,00;98,85
2647,00;98,93
2646,00;99,02
2645,00;98,97
2644,00;98,92
2643,00;98,68
2642,00;98,92
2641,00;98,88
2640,00;98,91
2639,00;98,85
2638,00;99,01
2637,00;99,15
2636,00;98,88
2635,00;98,75
2634,00;98,94
2633,00;98,85
2632,00;98,76
2631,00;98,84
2630,00;99,14
2629,00;99,10
2628,00;98,94
2627,00;98,88
2626,00;98,89
2625,00;98,87
2624,00;99,14
2623,00;98,85
2622,00;98,75
2621,00;98,99
2620,00;98,98
2619,00;99,01
2618,00;98,96
2617,00;98,77
2616,00;98,83
2615,00;99,11
2614,00;99,06
2613,00;98,93
2612,00;98,71
2611,00;98,75
2610,00;99,05
2609,00;98,86
2608,00;98,99
2607,00;99,05
2606,00;99,08
2605,00;98,99
2604,00;98,93
2603,00;98,83
2602,00;98,75
2601,00;98,77
2600,00;99,02
2599,00;98,85
2598,00;98,83
2597,00;98,81
2596,00;98,87
2595,00;98,92
2594,00;99,06
2593,00;98,87
2592,00;98,99
2591,00;98,73
2590,00;98,94
2589,00;99,03
2588,00;98,89
2587,00;99,07
2586,00;98,96
2585,00;98,90
2584,00;98,89
2583,00;99,01
2582,00;99,07
2581,00;98,96
2580,00;99,16
2579,00;99,03
2578,00;98,92
2577,00;98,91
2576,00;98,66
2575,00;98,79
2574,00;99,11
2573,00;99,07
2572,00;99,05
2571,00;98,96
2570,00;98,91
2569,00;99,19
2568,00;99,16
2567,00;99,00
2566,00;98,89
2565,00;98,80
2564,00;98,84
2563,00;99,01
2562,00;98,99
2561,00;98,87
2560,00;98,91
2559,00;98,92
2558,00;99,15
2557,00;98,94
2556,00;99,23
2555,00;98,75
2554,00;98,96
2553,00;99,00
2552,00;98,92
2551,00;99,03
2550,00;99,14
2549,00;99,06
2548,00;98,87
2547,00;99,08
2546,00;98,76
2545,00;98,63
2544,00;98,90
2543,00;98,77
2542,00;98,99
2541,00;98,76
2540,00;99,12
2539,00;98,98
2538,00;98,81
2537,00;98,88
2536,00;98,80
2535,00;98,97
2534,00;99,02
2533,00;98,82
2532,00;98,80
2531,00;98,88
2530,00;99,05
2529,00;99,12
2528,00;98,97
2527,00;99,04
2526,00;98,89
2525,00;98,78
2524,00;98,68
2523,00;98,80
2522,00;99,00
2521,00;99,03
2520,00;99,26
2519,00;98,78
2518,00;98,67
2517,00;99,03
2516,00;98,77
2515,00;99,03
2514,00;99,05
2513,00;98,99
2512,00;98,85
2511,00;98,87
2510,00;99,17
2509,00;99,06
2508,00;99,05
2507,00;98,94
2506,00;99,23
2505,00;99,19
2504,00;99,09
2503,00;98,90
2502,00;98,94
2501,00;99,03
2500,00;99,33
2499,00;99,06
2498,00;99,14
2497,00;98,97
2496,00;99,12
2495,00;98,99
2494,00;98,82
2493,00;99,29
2492,00;99,19
2491,00;99,01
2490,00;98,85
2489,00;98,77
2488,00;98,82
2487,00;99,20
2486,00;98,93
2485,00;99,12
2484,00;98,83
2483,00;98,95
2482,00;98,89
2481,00;98,69
2480,00;98,92
2479,00;99,16
2478,00;99,10
2477,00;99,21
2476,00;98,71
2475,00;99,31
2474,00;99,16
2473,00;98,81
2472,00;99,17
2471,00;99,05
2470,00;98,95
2469,00;98,98
2468,00;98,98
2467,00;99,05
2466,00;99,16
2465,00;98,90
2464,00;99,10
2463,00;99,40
2462,00;99,40
2461,00;99,13
2460,00;98,90
2459,00;99,00
2458,00;98,84
2457,00;99,15
2456,00;99,09
2455,00;99,20
2454,00;99,17
2453,00;98,96
2452,00;98,80
2451,00;98,97
2450,00;99,16
2449,00;98,87
2448,00;98,95
2447,00;98,97
2446,00;98,98
2445,00;98,86
2444,00;99,08
2443,00;99,04
2442,00;99,10
2441,00;98,96
2440,00;98,91
2439,00;99,10
2438,00;98,99
2437,00;99,19
2436,00;99,18
2435,00;98,90
2434,00;99,10
2433,00;99,14
2432,00;99,21
2431,00;99,10
2430,00;99,07
2429,00;98,95
2428,00;98,84
2427,00;98,92
2426,00;99,01
2425,00;99,02
2424,00;98,97
2423,00;98,91
2422,00;99,29
2421,00;98,97
2420,00;99,06
2419,00;98,98
2418,00;98,92
2417,00;99,06
2416,00;98,99
2415,00;99,08
2414,00;99,27
2413,00;99,13
2412,00;98,99
2411,00;99,19
2410,00;98,93
2409,00;98,86
2408,00;99,00
2407,00;99,03
2406,00;99,16
2405,00;99,15
2404,00;99,08
2403,00;98,99
2402,00;98,99
2401,00;99,17
2400,00;98,84
2399,00;99,08
2398,00;99,00
2397,00;99,02
2396,00;99,20
2395,00;99,25
2394,00;99,20
2393,00;98,77
2392,00;99,20
2391,00;98,94
2390,00;99,23
2389,00;99,10
2388,00;99,00
2387,00;98,76
2386,00;99,05
2385,00;99,35
2384,00;99,16
2383,00;98,94
2382,00;98,87
2381,00;99,12
2380,00;98,90
2379,00;98,69
2378,00;98,45
2377,00;99,10
2376,00;98,52
2375,00;99,14
2374,00;98,88
2373,00;98,18
2372,00;98,70
2371,00;99,15
2370,00;98,22
2369,00;99,03
2368,00;98,04
2367,00;98,03
2366,00;99,19
2365,00;99,44
2364,00;97,82
2363,00;98,81
2362,00;98,64
2361,00;97,96
2360,00;99,54
2359,00;97,98
2358,00;99,16
2357,00;99,57
2356,00;97,70
2355,00;99,08
2354,00;99,17
2353,00;98,16
2352,00;98,42
2351,00;98,68
2350,00;99,09
2349,00;98,65
2348,00;98,94
2347,00;99,11
2346,00;99,16
2345,00;99,01
2344,00;99,56
2343,00;98,70
2342,00;98,32
2341,00;99,08
2340,00;98,52
2339,00;98,63
2338,00;98,57
2337,00;98,79
2336,00;98,50
2335,00;98,54
2334,00;98,89
2333,00;99,32
2332,00;98,68
2331,00;97,96
2330,00;98,65
2329,00;99,17
2328,00;98,44
2327,00;98,25
2326,00;98,76
2325,00;98,53
2324,00;99,36
2323,00;98,41
2322,00;98,56
2321,00;98,61
2320,00;98,79
2319,00;99,03
2318,00;98,78
2317,00;98,96
2316,00;98,88
2315,00;98,61
2314,00;99,01
2313,00;98,75
2312,00;98,79
2311,00;98,49
2310,00;98,77
2309,00;98,43
2308,00;99,09
2307,00;99,12
2306,00;99,10
2305,00;99,12
2304,00;98,99
2303,00;98,76
2302,00;99,37
2301,00;99,12
2300,00;98,85
2299,00;98,79
2298,00;99,10
2297,00;99,18
2296,00;99,21
2295,00;99,27
2294,00;99,44
2293,00;99,27
2292,00;98,87
2291,00;98,84
2290,00;99,06
2289,00;98,83
2288,00;98,94
2287,00;99,41
2286,00;98,81
2285,00;98,58
2284,00;98,98
2283,00;98,95
2282,00;98,85
2281,00;99,03
2280,00;99,08
2279,00;99,09
2278,00;99,17
2277,00;99,17
2276,00;98,97
2275,00;99,08
2274,00;98,76
2273,00;98,80
2272,00;98,74
2271,00;99,02
2270,00;98,90
2269,00;99,31
2268,00;99,17
2267,00;99,06
2266,00;98,79
2265,00;98,78
2264,00;98,85
2263,00;99,72
2262,00;99,46
2261,00;99,33
2260,00;98,62
2259,00;98,77
2258,00;99,08
2257,00;99,55
2256,00;98,54
2255,00;98,62
2254,00;98,65
2253,00;98,55
2252,00;98,97
2251,00;98,72
2250,00;99,21
2249,00;99,25
2248,00;99,62
2247,00;99,21
2246,00;98,33
2245,00;99,41
2244,00;99,13
2243,00;99,28
2242,00;99,48
2241,00;98,99
2240,00;99,04
2239,00;99,10
2238,00;99,32
2237,00;98,87
2236,00;99,16
2235,00;99,04
2234,00;98,74
2233,00;99,25
2232,00;98,77
2231,00;99,06
2230,00;99,47
2229,00;99,24
2228,00;99,53
2227,00;98,75
2226,00;99,12
2225,00;98,86
2224,00;98,66
2223,00;99,14
2222,00;99,10
2221,00;99,29
2220,00;99,21
2219,00;99,70
2218,00;99,58
2217,00;99,52
2216,00;99,08
2215,00;99,79
2214,00;99,63
2213,00;98,64
2212,00;98,69
2211,00;99,32
2210,00;99,33
2209,00;99,41
2208,00;99,30
2207,00;99,01
2206,00;98,42
2205,00;99,63
2204,00;99,00
2203,00;98,89
2202,00;99,07
2201,00;98,94
2200,00;98,68
2199,00;99,32
2198,00;99,19
2197,00;99,18
2196,00;98,77
2195,00;98,94
2194,00;98,46
2193,00;99,30
2192,00;99,52
2191,00;99,37
2190,00;99,05
2189,00;99,10
2188,00;98,84
2187,00;99,06
2186,00;99,97
2185,00;99,71
2184,00;98,69
2183,00;98,71
2182,00;99,16
2181,00;98,88
2180,00;98,74
2179,00;99,49
2178,00;99,14
2177,00;99,27
2176,00;98,69
2175,00;99,22
2174,00;98,87
2173,00;98,81
2172,00;98,13
2171,00;98,88
2170,00;98,95
2169,00;99,12
2168,00;98,82
2167,00;98,63
2166,00;98,69
2165,00;98,74
2164,00;98,79
2163,00;98,26
2162,00;98,81
2161,00;99,17
2160,00;98,88
2159,00;99,29
2158,00;99,92
2157,00;99,19
2156,00;98,91
2155,00;99,15
2154,00;99,25
2153,00;99,26
2152,00;99,52
2151,00;99,78
2150,00;98,95
2149,00;99,53
2148,00;100,09
2147,00;99,94
2146,00;98,92
2145,00;98,68
2144,00;98,68
2143,00;99,15
2142,00;99,78
2141,00;99,35
2140,00;99,00
2139,00;98,88
2138,00;98,74
2137,00;98,31
2136,00;99,06
2135,00;99,42
2134,00;99,10
2133,00;99,26
2132,00;98,93
2131,00;99,72
2130,00;98,70
2129,00;99,19
2128,00;99,12
2127,00;99,07
2126,00;99,23
2125,00;99,13
2124,00;99,56
2123,00;99,09
2122,00;99,57
2121,00;99,10
2120,00;99,42
2119,00;99,32
2118,00;99,12
2117,00;99,18
2116,00;99,31
2115,00;98,83
2114,00;99,12
2113,00;98,85
2112,00;99,11
2111,00;98,88
2110,00;98,69
2109,00;99,16
2108,00;98,94
2107,00;99,23
2106,00;98,95
2105,00;99,49
2104,00;99,17
2103,00;99,08
2102,00;99,25
2101,00;99,20
2100,00;99,50
2099,00;99,14
2098,00;99,42
2097,00;98,75
2096,00;99,49
2095,00;99,26
2094,00;99,36
2093,00;99,11
2092,00;99,16
2091,00;99,01
2090,00;99,45
2089,00;99,27
2088,00;98,94
2087,00;98,83
2086,00;99,14
2085,00;98,71
2084,00;99,34
2083,00;98,96
2082,00;99,21
2081,00;98,52
2080,00;99,13
2079,00;99,32
2078,00;99,35
2077,00;99,11
2076,00;98,72
2075,00;99,09
2074,00;99,34
2073,00;99,09
2072,00;98,99
2071,00;99,45
2070,00;99,09
2069,00;98,57
2068,00;99,43
2067,00;99,15
2066,00;99,22
2065,00;99,02
2064,00;98,91
2063,00;98,43
2062,00;99,31
2061,00;99,02
2060,00;99,58
2059,00;99,04
2058,00;98,89
2057,00;99,09
2056,00;98,98
2055,00;98,96
2054,00;99,20
2053,00;98,80
2052,00;98,74
2051,00;99,34
2050,00;99,05
2049,00;99,17
2048,00;99,51
2047,00;99,47
2046,00;99,58
2045,00;99,00
2044,00;98,55
2043,00;99,35
2042,00;99,06
2041,00;99,04
2040,00;99,47
2039,00;98,92
2038,00;98,59
2037,00;99,06
2036,00;98,71
2035,00;99,01
2034,00;99,11
2033,00;99,26
2032,00;99,36
2031,00;99,10
2030,00;99,16
2029,00;98,33
2028,00;99,19
2027,00;98,93
2026,00;98,42
2025,00;98,42
2024,00;98,73
2023,00;99,44
2022,00;99,55
2021,00;98,77
2020,00;99,15
2019,00;99,20
2018,00;99,25
2017,00;98,90
2016,00;99,57
2015,00;98,98
2014,00;99,13
2013,00;98,48
2012,00;99,56
2011,00;99,78
2010,00;98,71
2009,00;98,56
2008,00;98,76
2007,00;98,46
2006,00;99,66
2005,00;99,59
2004,00;99,57
2003,00;99,12
2002,00;99,72
2001,00;98,88
2000,00;99,45
1999,00;99,52
1998,00;98,32
1997,00;99,15
1996,00;98,85
1995,00;99,09
1994,00;99,63
1993,00;98,98
1992,00;99,10
1991,00;98,65
1990,00;98,83
1989,00;98,90
1988,00;99,51
1987,00;98,99
1986,00;98,88
1985,00;98,63
1984,00;99,07
1983,00;98,98
1982,00;98,74
1981,00;98,79
1980,00;98,76
1979,00;98,76
1978,00;98,93
1977,00;98,94
1976,00;99,01
1975,00;100,49
1974,00;99,39
1973,00;99,10
1972,00;99,11
1971,00;99,07
1970,00;99,12
1969,00;99,60
1968,00;99,39
1967,00;99,72
1966,00;99,63
1965,00;99,02
1964,00;99,03
1963,00;98,23
1962,00;99,68
1961,00;98,70
1960,00;99,10
1959,00;99,21
1958,00;98,44
1957,00;99,10
1956,00;99,10
1955,00;99,34
1954,00;99,35
1953,00;98,78
1952,00;99,26
1951,00;98,91
1950,00;99,61
1949,00;99,05
1948,00;99,10
1947,00;99,42
1946,00;98,67
1945,00;99,24
1944,00;98,75
1943,00;98,19
1942,00;99,45
1941,00;99,51
1940,00;99,15
1939,00;99,00
1938,00;99,44
1937,00;99,28
1936,00;98,94
1935,00;98,94
1934,00;98,73
1933,00;99,23
1932,00;99,14
1931,00;98,98
1930,00;98,77
1929,00;99,12
1928,00;99,17
1927,00;98,52
1926,00;99,11
1925,00;98,99
1924,00;99,49
1923,00;99,30
1922,00;99,37
1921,00;99,23
1920,00;98,85
1919,00;98,80
1918,00;99,15
1917,00;99,10
1916,00;99,38
1915,00;98,99
1914,00;98,95
1913,00;99,20
1912,00;98,92
1911,00;99,00
1910,00;98,88
1909,00;98,93
1908,00;99,15
1907,00;98,96
1906,00;99,09
1905,00;98,91
1904,00;98,91
1903,00;99,17
1902,00;99,07
1901,00;99,64
1900,00;98,94
1899,00;99,02
1898,00;99,14
1897,00;99,17
1896,00;99,28
1895,00;99,52
1894,00;99,11
1893,00;99,12
1892,00;98,77
1891,00;98,70
1890,00;99,27
1889,00;98,88
1888,00;99,05
1887,00;98,85
1886,00;98,68
1885,00;99,33
1884,00;98,96
1883,00;98,98
1882,00;99,30
1881,00;98,91
1880,00;99,06
1879,00;99,01
1878,00;99,00
1877,00;99,02
1876,00;99,18
1875,00;99,17
1874,00;98,95
1873,00;98,94
1872,00;99,14
1871,00;99,32
1870,00;98,94
1869,00;98,75
1868,00;99,08
1867,00;98,77
1866,00;98,86
1865,00;98,83
1864,00;99,10
1863,00;99,28
1862,00;99,16
1861,00;99,25
1860,00;98,98
1859,00;98,94
1858,00;99,44
1857,00;98,99
1856,00;99,14
1855,00;99,25
1854,00;99,03
1853,00;99,15
1852,00;98,88
1851,00;99,01
1850,00;99,08
1849,00;99,08
1848,00;98,99
1847,00;99,18
1846,00;99,24
1845,00;99,30
1844,00;99,06
1843,00;99,27
1842,00;99,16
1841,00;99,30
1840,00;99,02
1839,00;98,95
1838,00;98,98
1837,00;99,40
1836,00;99,07
1835,00;99,01
1834,00;99,24
1833,00;99,08
1832,00;98,90
1831,00;99,05
1830,00;99,16
1829,00;98,98
1828,00;98,99
1827,00;98,94
1826,00;98,96
1825,00;99,08
1824,00;99,00
1823,00;99,12
1822,00;99,00
1821,00;99,04
1820,00;99,10
1819,00;99,05
1818,00;99,14
1817,00;98,85
1816,00;98,92
1815,00;98,97
1814,00;99,20
1813,00;99,09
1812,00;99,01
1811,00;98,96
1810,00;99,13
1809,00;99,20
1808,00;99,05
1807,00;99,07
1806,00;99,22
1805,00;98,99
1804,00;99,02
1803,00;98,97
1802,00;99,13
1801,00;99,28
1800,00;99,27
1799,00;99,08
1798,00;98,94
1797,00;99,07
1796,00;98,96
1795,00;98,87
1794,00;99,06
1793,00;99,14
1792,00;98,88
1791,00;98,64
1790,00;99,01
1789,00;99,05
1788,00;98,91
1787,00;99,26
1786,00;99,02
1785,00;99,17
1784,00;99,05
1783,00;98,85
1782,00;98,99
1781,00;99,07
1780,00;99,19
1779,00;98,99
1778,00;99,05
1777,00;99,15
1776,00;99,07
1775,00;98,97
1774,00;99,04
1773,00;99,10
1772,00;98,85
1771,00;98,93
1770,00;99,05
1769,00;99,18
1768,00;98,90
1767,00;98,92
1766,00;99,13
1765,00;98,92
1764,00;98,87
1763,00;99,09
1762,00;99,05
1761,00;99,10
1760,00;98,98
1759,00;99,00
1758,00;98,88
1757,00;99,36
1756,00;99,02
1755,00;99,17
1754,00;98,84
1753,00;99,22
1752,00;99,07
1751,00;99,46
1750,00;99,03
1749,00;98,88
1748,00;99,13
1747,00;98,92
1746,00;98,98
1745,00;98,90
1744,00;99,08
1743,00;99,31
1742,00;98,99
1741,00;98,96
1740,00;99,23
1739,00;99,06
1738,00;99,07
1737,00;98,96
1736,00;98,92
1735,00;99,09
1734,00;99,48
1733,00;98,89
1732,00;98,83
1731,00;98,86
1730,00;98,90
1729,00;99,08
1728,00;99,18
1727,00;98,92
1726,00;98,90
1725,00;99,04
1724,00;99,19
1723,00;99,00
1722,00;99,11
1721,00;99,14
1720,00;98,96
1719,00;98,74
1718,00;98,84
1717,00;98,96
1716,00;99,12
1715,00;99,00
1714,00;98,94
1713,00;98,94
1712,00;98,87
1711,00;98,97
1710,00;99,01
1709,00;98,93
1708,00;99,00
1707,00;99,14
1706,00;98,97
1705,00;98,73
1704,00;99,26
1703,00;98,86
1702,00;94,98
1701,00;83,66
1700,00;79,39
1699,00;90,28
1698,00;98,11
1697,00;98,79
1696,00;98,89
1695,00;98,91
1694,00;98,94
1693,00;98,89
1692,00;99,03
1691,00;98,96
1690,00;98,94
1689,00;98,89
1688,00;98,86
1687,00;98,85
1686,00;98,91
1685,00;97,47
1684,00;99,95
1683,00;98,74
1682,00;98,85
1681,00;98,78
1680,00;98,88
1679,00;99,02
1678,00;99,22
1677,00;99,13
1676,00;98,86
1675,00;98,80
1674,00;99,10
1673,00;98,89
1672,00;98,78
1671,00;98,74
1670,00;98,82
1669,00;99,13
1668,00;98,97
1667,00;98,89
1666,00;98,76
1665,00;98,97
1664,00;99,07
1663,00;99,07
1662,00;98,89
1661,00;98,91
1660,00;98,87
1659,00;98,92
1658,00;99,07
1657,00;98,98
1656,00;99,02
1655,00;98,61
1654,00;99,62
1653,00;82,40
1652,00;99,49
1651,00;98,91
1650,00;98,70
1649,00;98,74
1648,00;98,50
1647,00;99,23
1646,00;99,41
1645,00;98,96
1644,00;98,68
1643,00;99,08
1642,00;98,99
1641,00;98,75
1640,00;99,01
1639,00;98,93
1638,00;98,95
1637,00;98,98
1636,00;98,83
1635,00;98,59
1634,00;98,88
1633,00;98,91
1632,00;99,14
1631,00;98,77
1630,00;98,93
1629,00;98,87
1628,00;98,97
1627,00;98,86
1626,00;98,74
1625,00;98,83
1624,00;98,95
1623,00;98,75
1622,00;98,89
1621,00;98,75
1620,00;98,67
1619,00;98,99
1618,00;98,76
1617,00;99,29
1616,00;98,93
1615,00;99,13
1614,00;98,89
1613,00;98,75
1612,00;99,01
1611,00;98,90
1610,00;98,78
1609,00;98,79
1608,00;99,03
1607,00;98,97
1606,00;98,99
1605,00;98,78
1604,00;98,92
1603,00;98,82
1602,00;98,93
1601,00;98,92
1600,00;99,14
1599,00;99,01
1598,00;98,95
1597,00;99,04
1596,00;98,84
1595,00;99,03
1594,00;99,00
1593,00;98,90
1592,00;98,91
1591,00;98,77
1590,00;98,91
1589,00;99,08
1588,00;99,00
1587,00;98,90
1586,00;98,93
1585,00;99,03
1584,00;99,09
1583,00;98,89
1582,00;98,97
1581,00;99,10
1580,00;98,86
1579,00;98,96
1578,00;98,92
1577,00;99,14
1576,00;99,94
1575,00;98,88
1574,00;98,89
1573,00;98,97
1572,00;98,88
1571,00;99,07
1570,00;98,90
1569,00;98,95
1568,00;99,03
1567,00;99,03
1566,00;98,78
1565,00;98,68
1564,00;99,04
1563,00;99,00
1562,00;98,92
1561,00;98,94
1560,00;95,68
1559,00;99,19
1558,00;99,68
1557,00;99,23
1556,00;99,02
1555,00;98,60
1554,00;98,84
1553,00;98,94
1552,00;98,96
1551,00;99,00
1550,00;98,59
1549,00;98,82
1548,00;98,92
1547,00;98,99
1546,00;98,90
1545,00;98,94
1544,00;98,79
1543,00;98,54
1542,00;99,02
1541,00;98,97
1540,00;99,31
1539,00;97,64
1538,00;98,71
1537,00;98,84
1536,00;99,01
1535,00;98,82
1534,00;99,02
1533,00;98,83
1532,00;98,97
1531,00;98,83
1530,00;98,69
1529,00;98,73
1528,00;98,66
1527,00;98,83
1526,00;98,78
1525,00;98,69
1524,00;98,79
1523,00;98,81
1522,00;98,38
1521,00;98,64
1520,00;99,00
1519,00;98,89
1518,00;98,76
1517,00;98,78
1516,00;98,81
1515,00;98,76
1514,00;98,87
1513,00;98,61
1512,00;98,78
1511,00;98,69
1510,00;98,72
1509,00;98,57
1508,00;98,65
1507,00;99,98
1506,00;99,31
1505,00;98,98
1504,00;98,74
1503,00;98,77
1502,00;98,71
1501,00;98,70
1500,00;98,86
1499,00;98,73
1498,00;98,54
1497,00;98,47
1496,00;99,59
1495,00;98,73
1494,00;98,51
1493,00;98,44
1492,00;98,74
1491,00;98,76
1490,00;98,34
1489,00;98,42
1488,00;98,40
1487,00;98,59
1486,00;98,54
1485,00;98,63
1484,00;98,62
1483,00;98,75
1482,00;98,52
1481,00;98,64
1480,00;98,59
1479,00;98,71
1478,00;98,62
1477,00;98,51
1476,00;99,03
1475,00;98,60
1474,00;98,65
1473,00;98,53
1472,00;99,10
1471,00;98,51
1470,00;98,61
1469,00;98,55
1468,00;98,67
1467,00;98,72
1466,00;98,62
1465,00;98,41
1464,00;98,77
1463,00;98,56
1462,00;98,71
1461,00;98,61
1460,00;98,52
1459,00;98,35
1458,00;98,54
1457,00;98,73
1456,00;98,20
1455,00;98,25
1454,00;98,72
1453,00;98,56
1452,00;98,55
1451,00;98,63
1450,00;98,53
1449,00;98,48
1448,00;98,20
1447,00;98,51
1446,00;98,62
1445,00;98,53
1444,00;98,62
1443,00;98,54
1442,00;98,60
1441,00;98,62
1440,00;98,59
1439,00;98,64
1438,00;98,35
1437,00;98,24
1436,00;98,67
1435,00;98,48
1434,00;98,54
1433,00;98,51
1432,00;98,54
1431,00;98,39
1430,00;98,70
1429,00;98,55
1428,00;98,61
1427,00;98,56
1426,00;98,75
1425,00;98,53
1424,00;98,41
1423,00;98,56
1422,00;98,52
1421,00;98,58
1420,00;98,60
1419,00;98,60
1418,00;98,63
1417,00;98,62
1416,00;98,57
1415,00;98,64
1414,00;98,66
1413,00;98,58
1412,00;98,43
1411,00;98,60
1410,00;98,61
1409,00;98,64
1408,00;98,60
1407,00;98,76
1406,00;98,57
1405,00;98,52
1404,00;98,64
1403,00;98,48
1402,00;98,59
1401,00;98,61
1400,00;98,50
1399,00;98,53
1398,00;98,65
1397,00;98,70
1396,00;98,71
1395,00;98,59
1394,00;98,81
1393,00;98,71
1392,00;98,63
1391,00;98,67
1390,00;98,74
1389,00;98,74
1388,00;98,39
1387,00;98,52
1386,00;98,73
1385,00;98,82
1384,00;98,81
1383,00;98,76
1382,00;98,80
1381,00;98,78
1380,00;98,66
1379,00;98,76
1378,00;98,60
1377,00;98,68
1376,00;98,61
1375,00;98,87
1374,00;98,74
1373,00;98,62
1372,00;98,75
1371,00;98,84
1370,00;98,87
1369,00;98,71
1368,00;98,81
1367,00;98,84
1366,00;98,77
1365,00;98,86
1364,00;98,85
1363,00;98,72
1362,00;98,80
1361,00;98,68
1360,00;98,78
1359,00;98,75
1358,00;98,79
1357,00;98,86
1356,00;98,80
1355,00;98,81
1354,00;98,90
1353,00;98,78
1352,00;98,78
1351,00;98,81
1350,00;98,87
1349,00;98,98
1348,00;98,87
1347,00;98,83
1346,00;98,93
1345,00;98,90
1344,00;98,97
1343,00;98,83
1342,00;98,95
1341,00;98,91
1340,00;98,89
1339,00;98,92
1338,00;98,73
1337,00;98,78
1336,00;99,00
1335,00;99,12
1334,00;98,79
1333,00;98,81
1332,00;98,75
1331,00;98,94
1330,00;98,97
1329,00;98,93
1328,00;98,89
1327,00;98,90
1326,00;99,08
1325,00;98,86
1324,00;98,81
1323,00;98,91
1322,00;99,05
1321,00;98,85
1320,00;98,98
1319,00;98,88
1318,00;98,86
1317,00;99,02
1316,00;99,16
1315,00;98,86
1314,00;98,88
1313,00;98,94
1312,00;98,84
1311,00;98,95
1310,00;98,89
1309,00;98,97
1308,00;98,96
1307,00;98,93
1306,00;99,00
1305,00;99,01
1304,00;98,95
1303,00;99,02
1302,00;98,99
1301,00;98,96
1300,00;99,07
1299,00;98,98
1298,00;98,92
1297,00;98,93
1296,00;98,86
1295,00;98,82
1294,00;99,09
1293,00;98,85
1292,00;99,00
1291,00;99,12
1290,00;98,94
1289,00;98,99
1288,00;99,02
1287,00;98,90
1286,00;98,91
1285,00;99,12
1284,00;98,96
1283,00;99,02
1282,00;99,03
1281,00;99,04
1280,00;99,01
1279,00;99,06
1278,00;98,97
1277,00;98,86
1276,00;98,86
1275,00;99,03
1274,00;98,93
1273,00;98,98
1272,00;98,92
1271,00;98,98
1270,00;99,14
1269,00;98,75
1268,00;98,98
1267,00;98,81
1266,00;98,81
1265,00;98,92
1264,00;98,88
1263,00;98,99
1262,00;98,94
1261,00;98,83
1260,00;98,73
1259,00;98,73
1258,00;98,79
1257,00;98,74
1256,00;98,73
1255,00;98,74
1254,00;98,72
1253,00;98,67
1252,00;98,77
1251,00;98,77
1250,00;98,53
1249,00;98,78
1248,00;98,71
1247,00;98,53
1246,00;98,59
1245,00;98,66
1244,00;98,39
1243,00;98,60
1242,00;98,65
1241,00;98,48
1240,00;98,46
1239,00;98,44
1238,00;98,37
1237,00;98,55
1236,00;98,35
1235,00;98,26
1234,00;98,46
1233,00;98,48
1232,00;98,36
1231,00;98,44
1230,00;98,35
1229,00;98,36
1228,00;98,36
1227,00;98,35
1226,00;98,39
1225,00;98,25
1224,00;98,20
1223,00;98,18
1222,00;98,42
1221,00;98,54
1220,00;98,10
1219,00;98,29
1218,00;98,37
1217,00;98,17
1216,00;98,28
1215,00;98,23
1214,00;98,23
1213,00;98,23
1212,00;98,23
1211,00;97,92
1210,00;97,96
1209,00;98,06
1208,00;98,03
1207,00;97,99
1206,00;98,08
1205,00;97,86
1204,00;97,97
1203,00;97,90
1202,00;97,90
1201,00;97,89
1200,00;97,86
1199,00;97,77
1198,00;97,69
1197,00;97,65
1196,00;97,65
1195,00;97,60
1194,00;97,37
1193,00;97,73
1192,00;97,57
1191,00;97,48
1190,00;97,62
1189,00;97,32
1188,00;97,42
1187,00;97,36
1186,00;97,60
1185,00;97,37
1184,00;96,99
1183,00;97,16
1182,00;97,09
1181,00;97,27
1180,00;96,89
1179,00;97,00
1178,00;97,07
1177,00;97,03
1176,00;96,96
1175,00;97,06
1174,00;96,74
1173,00;96,96
1172,00;96,67
1171,00;96,62
1170,00;96,57
1169,00;96,66
1168,00;96,60
1167,00;96,49
1166,00;96,22
1165,00;96,33
1164,00;96,19
1163,00;96,44
1162,00;96,43
1161,00;96,59
1160,00;95,96
1159,00;95,87
1158,00;96,19
1157,00;95,99
1156,00;95,59
1155,00;95,99
1154,00;95,80
1153,00;96,24
1152,00;95,64
1151,00;95,85
1150,00;96,05
1149,00;95,84
1148,00;95,70
1147,00;95,31
1146,00;95,68
1145,00;95,23
1144,00;95,63
1143,00;95,54
1142,00;95,17
1141,00;95,35
1140,00;95,51
1139,00;95,03
1138,00;95,25
1137,00;95,16
1136,00;95,21
1135,00;95,15
1134,00;95,19
1133,00;95,00
1132,00;95,10
1131,00;95,10
1130,00;94,79
1129,00;94,84
1128,00;95,30
1127,00;94,81
1126,00;94,69
1125,00;94,75
1124,00;94,53
1123,00;94,81
1122,00;94,50
1121,00;94,46
1120,00;94,50
1119,00;94,68
1118,00;94,28
1117,00;94,22
1116,00;94,49
1115,00;94,20
1114,00;94,53
1113,00;93,96
1112,00;94,21
1111,00;94,08
1110,00;94,23
1109,00;93,77
1108,00;93,84
1107,00;93,77
1106,00;93,38
1105,00;93,38
1104,00;93,63
1103,00;93,60
1102,00;93,27
1101,00;93,20
1100,00;93,29
1099,00;93,42
1098,00;93,08
1097,00;93,09
1096,00;93,41
1095,00;93,07
1094,00;92,97
1093,00;93,14
1092,00;92,75
1091,00;93,31
1090,00;93,37
1089,00;93,28
1088,00;93,08
1087,00;92,97
1086,00;92,95
1085,00;92,69
1084,00;93,34
1083,00;93,04
1082,00;92,57
1081,00;92,90
1080,00;92,91
1079,00;92,96
1078,00;92,56
1077,00;92,83
1076,00;92,68
1075,00;92,95
1074,00;92,57
1073,00;92,90
1072,00;92,75
1071,00;92,50
1070,00;92,28
1069,00;92,67
1068,00;92,34
1067,00;92,73
1066,00;92,76
1065,00;92,18
1064,00;92,82
1063,00;92,54
1062,00;92,33
1061,00;92,05
1060,00;92,56
1059,00;92,41
1058,00;92,06
1057,00;92,26
1056,00;92,58
1055,00;92,42
1054,00;92,21
1053,00;92,23
1052,00;92,03
1051,00;92,05
1050,00;91,98
1049,00;92,15
1048,00;91,88
1047,00;92,12
1046,00;92,15
1045,00;91,83
1044,00;91,45
1043,00;92,07
1042,00;91,82
1041,00;91,49
1040,00;91,68
1039,00;91,54
1038,00;91,77
1037,00;91,55
1036,00;91,32
1035,00;91,56
1034,00;91,47
1033,00;91,25
1032,00;91,19
1031,00;90,97
1030,00;91,12
1029,00;91,29
1028,00;90,98
1027,00;90,82
1026,00;91,13
1025,00;91,07
1024,00;90,80
1023,00;91,18
1022,00;90,69
1021,00;90,80
1020,00;90,75
1019,00;90,81
1018,00;90,64
1017,00;90,84
1016,00;90,79
1015,00;90,79
1014,00;90,91
1013,00;90,79
1012,00;90,69
1011,00;90,68
1010,00;90,85
1009,00;90,80
1008,00;90,77
1007,00;90,67
1006,00;90,67
1005,00;90,60
1004,00;90,85
1003,00;90,81
1002,00;90,74
1001,00;90,75
1000,00;90,94
999,00;90,99
998,00;90,93
997,00;90,82
996,00;90,92
995,00;91,01
994,00;91,18
993,00;91,11
992,00;90,98
991,00;91,14
990,00;90,73
989,00;90,79
988,00;91,22
987,00;91,29
986,00;91,18
985,00;90,87
984,00;90,77
983,00;90,78
982,00;91,19
981,00;90,98
980,00;91,31
979,00;91,02
978,00;91,39
977,00;91,34
976,00;91,05
975,00;90,96
974,00;91,16
973,00;91,36
972,00;91,13
971,00;90,96
970,00;91,10
969,00;90,93
968,00;91,16
967,00;91,15
966,00;90,96
965,00;91,29
964,00;91,20
963,00;91,32
962,00;91,00
961,00;91,18
960,00;90,95
959,00;91,04
958,00;90,92
957,00;90,60
956,00;90,81
955,00;90,86
954,00;90,71
953,00;90,56
952,00;90,54
951,00;90,82
950,00;90,67
949,00;90,57
948,00;90,74
947,00;90,65
946,00;90,56
945,00;90,61
944,00;90,12
943,00;90,59
942,00;90,55
941,00;90,39
940,00;90,40
939,00;90,33
938,00;90,47
937,00;90,66
936,00;90,38
935,00;90,45
934,00;90,39
933,00;90,32
932,00;90,48
931,00;90,26
930,00;90,05
929,00;90,42
928,00;90,07
927,00;90,66
926,00;90,00
925,00;90,46
924,00;90,40
923,00;89,94
922,00;90,46
921,00;90,46
920,00;90,17
919,00;90,33
918,00;90,29
917,00;90,43
916,00;90,27
915,00;90,37
914,00;90,38
913,00;90,33
912,00;90,49
911,00;90,79
910,00;90,87
909,00;90,85
908,00;90,47
907,00;90,79
906,00;90,49
905,00;90,93
904,00;90,87
903,00;90,45
902,00;90,78
901,00;90,80
900,00;90,77
899,00;90,83
898,00;90,67
897,00;90,93
896,00;90,83
895,00;91,02
894,00;91,20
893,00;91,53
892,00;90,81
891,00;90,99
890,00;91,06
889,00;91,25
888,00;91,14
887,00;91,32
886,00;91,23
885,00;91,14
884,00;91,69
883,00;91,68
882,00;91,40
881,00;91,75
880,00;91,81
879,00;91,36
878,00;91,50
877,00;92,00
876,00;91,89
875,00;92,26
874,00;92,11
873,00;91,93
872,00;92,18
871,00;92,15
870,00;92,08
869,00;92,02
868,00;92,30
867,00;91,81
866,00;92,11
865,00;92,22
864,00;92,34
863,00;92,60
862,00;92,87
861,00;92,44
860,00;93,07
859,00;92,75
858,00;92,64
857,00;92,87
856,00;92,91
855,00;92,81
854,00;93,20
853,00;93,23
852,00;93,22
851,00;92,84
850,00;93,34
849,00;93,26
848,00;93,00
847,00;93,48
846,00;93,43
845,00;93,31
844,00;93,26
843,00;93,62
842,00;94,01
841,00;93,76
840,00;93,70
839,00;93,55
838,00;93,98
837,00;93,67
836,00;93,64
835,00;94,23
834,00;93,98
833,00;93,62
832,00;94,37
831,00;94,06
830,00;93,81
829,00;94,02
828,00;94,07
827,00;94,04
826,00;93,87
825,00;95,15
824,00;94,64
823,00;94,35
822,00;94,06
821,00;94,02
820,00;94,46
819,00;94,44
818,00;94,58
817,00;94,21
816,00;94,15
815,00;94,82
814,00;94,40
813,00;94,55
812,00;94,94
811,00;94,82
810,00;94,86
809,00;94,88
808,00;94,91
807,00;94,29
806,00;94,78
805,00;94,17
804,00;93,95
803,00;94,93
802,00;94,54
801,00;94,94
800,00;94,48
799,00;94,42
798,00;94,57
797,00;94,46
796,00;95,19
795,00;94,78
794,00;95,14
793,00;94,43
792,00;94,40
791,00;94,85
790,00;95,15
789,00;94,81
788,00;94,96
787,00;94,94
786,00;94,82
785,00;94,47
784,00;94,85
783,00;94,54
782,00;93,98
781,00;94,81
780,00;94,96
779,00;94,23
778,00;94,65
777,00;95,07
776,00;94,65
775,00;94,51
774,00;94,41
773,00;94,82
772,00;94,52
771,00;94,40
770,00;94,96
769,00;94,34
768,00;94,78
767,00;95,08
766,00;95,03
765,00;94,92
764,00;94,69
763,00;94,56
762,00;95,01
761,00;94,24
760,00;94,43
759,00;95,06
758,00;94,44
757,00;94,51
756,00;94,18
755,00;94,45
754,00;94,68
753,00;94,76
752,00;95,11
751,00;94,47
750,00;94,52
749,00;94,12
748,00;94,29
747,00;94,42
746,00;94,82
745,00;94,24
744,00;94,53
743,00;94,55
742,00;95,07
741,00;94,83
740,00;94,65
739,00;94,13
738,00;94,48
737,00;94,92
736,00;94,81
735,00;95,06
734,00;94,34
733,00;94,45
732,00;94,44
731,00;94,31
730,00;95,42
729,00;94,93
728,00;94,23
727,00;94,08
726,00;94,25
725,00;94,04
724,00;94,28
723,00;94,65
722,00;94,97
721,00;94,55
720,00;94,79
719,00;94,74
718,00;94,99
717,00;94,60
716,00;94,99
715,00;94,07
714,00;94,65
713,00;94,85
712,00;94,81
711,00;94,81
710,00;95,05
709,00;95,49
708,00;94,50
707,00;94,31
706,00;94,52
705,00;94,41
704,00;94,91
703,00;94,87
702,00;95,35
701,00;94,25
700,00;94,52
699,00;95,10
698,00;94,21
697,00;94,79
696,00;95,13
695,00;94,16
694,00;94,21
693,00;94,17
692,00;94,36
691,00;94,31
690,00;93,72
689,00;94,58
688,00;94,05
687,00;94,16
686,00;94,08
685,00;94,38
684,00;93,90
683,00;93,74
682,00;93,54
681,00;94,06
680,00;94,35
679,00;94,66
678,00;94,57
677,00;93,27
676,00;93,74
675,00;93,90
674,00;94,20
673,00;93,63
672,00;93,63
671,00;92,59
670,00;93,66
669,00;95,14
668,00;84,76
667,00;95,15
666,00;93,90
665,00;94,06
664,00;94,67
663,00;92,82
662,00;94,57
661,00;94,15
660,00;94,45
659,00;93,83
658,00;93,81
657,00;92,71
656,00;94,16
655,00;92,96
654,00;93,77
653,00;94,34
652,00;94,74
651,00;92,39
650,00;93,14
649,00;94,65
648,00;92,82
647,00;95,13
646,00;91,94
645,00;93,57
644,00;93,26
643,00;94,09
642,00;93,64
641,00;94,69
640,00;92,90
639,00;93,09
638,00;92,46
637,00;90,98
636,00;90,01
635,00;90,79
634,00;90,96
633,00;91,14
632,00;92,18
631,00;93,66
630,00;89,24
629,00;92,11
628,00;92,65
627,00;91,77
626,00;90,49
625,00;90,86
624,00;91,77
623,00;87,71
622,00;89,09
621,00;89,23
620,00;91,24
619,00;96,52
618,00;95,28
617,00;84,11
616,00;87,13
615,00;89,33
614,00;91,64
613,00;93,39
612,00;88,93
611,00;90,51
610,00;93,20
609,00;92,80
608,00;84,26
607,00;87,66
606,00;87,60
605,00;89,26
604,00;90,19
603,00;89,75
602,00;85,66
601,00;89,17
600,00;92,96
