Created as New Dataset;Sample 058 By Administrator Date donderdag, februari 26 2026
cm-1;%T
4000,00;-87,06
3999,00;-103,15
3998,00;-115,44
3997,00;-123,25
3996,00;-125,44
3995,00;-123,79
3994,00;-115,92
3993,00;-102,66
3992,00;-85,17
3991,00;-63,81
3990,00;-45,00
3989,00;-19,82
3988,00;6,91
3987,00;32,82
3986,00;56,71
3985,00;78,17
3984,00;96,54
3983,00;111,51
3982,00;120,48
3981,00;124,68
3980,00;124,53
3979,00;118,86
3978,00;107,95
3977,00;91,40
3976,00;74,78
3975,00;53,34
3974,00;28,84
3973,00;2,20
3972,00;-19,82
3971,00;-44,95
3970,00;-71,24
3969,00;-88,84
3968,00;-103,08
3967,00;-116,46
3966,00;-123,81
3965,00;-125,14
3964,00;-121,79
3963,00;-110,80
3962,00;-101,14
3961,00;-87,52
3960,00;-62,26
3959,00;-38,89
3958,00;-13,41
3957,00;11,19
3956,00;34,12
3955,00;59,49
3954,00;82,64
3953,00;99,60
3952,00;110,88
3951,00;122,83
3950,00;129,83
3949,00;122,26
3948,00;117,99
3947,00;113,84
3946,00;91,83
3945,00;66,79
3944,00;40,74
3943,00;12,00
3942,00;21,15
3941,00;-19,87
3940,00;-49,16
3939,00;-73,56
3938,00;-89,70
3937,00;-105,79
3936,00;-117,87
3935,00;-123,98
3934,00;-124,60
3933,00;-116,57
3932,00;-123,24
3931,00;-98,68
3930,00;-80,66
3929,00;-67,79
3928,00;-40,25
3927,00;-8,51
3926,00;32,26
3925,00;47,25
3924,00;54,77
3923,00;73,82
3922,00;98,62
3921,00;118,28
3920,00;128,95
3919,00;121,24
3918,00;118,04
3917,00;125,50
3916,00;116,43
3915,00;92,23
3914,00;69,62
3913,00;46,88
3912,00;22,30
3911,00;-4,01
3910,00;-29,31
3909,00;-53,94
3908,00;-77,48
3907,00;-104,13
3906,00;-122,11
3905,00;-126,53
3904,00;-134,15
3903,00;-117,52
3902,00;-133,33
3901,00;-116,29
3900,00;-75,03
3899,00;-109,72
3898,00;-77,34
3897,00;-41,63
3896,00;-7,70
3895,00;24,54
3894,00;46,93
3893,00;75,26
3892,00;119,79
3891,00;90,22
3890,00;103,24
3889,00;119,44
3888,00;121,81
3887,00;112,20
3886,00;124,23
3885,00;128,09
3884,00;84,62
3883,00;71,41
3882,00;28,33
3881,00;-27,04
3880,00;42,95
3879,00;-7,07
3878,00;-51,37
3877,00;-77,22
3876,00;-98,94
3875,00;-132,69
3874,00;-135,84
3873,00;-117,92
3872,00;-117,45
3871,00;-103,89
3870,00;-122,39
3869,00;-143,38
3868,00;-87,93
3867,00;-44,87
3866,00;7,58
3865,00;4,29
3864,00;-8,90
3863,00;46,18
3862,00;81,62
3861,00;67,21
3860,00;98,90
3859,00;116,16
3858,00;126,45
3857,00;131,36
3856,00;112,31
3855,00;76,88
3854,00;183,20
3853,00;95,29
3852,00;134,70
3851,00;74,59
3850,00;19,34
3849,00;4,49
3848,00;-29,20
3847,00;-60,19
3846,00;-83,35
3845,00;-108,43
3844,00;-135,13
3843,00;-113,85
3842,00;-120,31
3841,00;-127,90
3840,00;-122,59
3839,00;-90,72
3838,00;-100,69
3837,00;-110,70
3836,00;-38,48
3835,00;-31,95
3834,00;-26,96
3833,00;33,30
3832,00;83,76
3831,00;42,70
3830,00;82,30
3829,00;107,47
3828,00;120,80
3827,00;133,87
3826,00;127,22
3825,00;119,06
3824,00;106,22
3823,00;79,46
3822,00;28,23
3821,00;92,09
3820,00;90,16
3819,00;25,21
3818,00;-17,89
3817,00;-84,24
3816,00;-65,50
3815,00;-48,48
3814,00;-90,31
3813,00;-110,68
3812,00;-120,04
3811,00;-125,18
3810,00;-121,96
3809,00;-109,46
3808,00;-79,92
3807,00;-110,83
3806,00;-101,88
3805,00;-50,76
3804,00;-3,59
3803,00;39,71
3802,00;87,32
3801,00;-4,30
3800,00;42,91
3799,00;86,09
3798,00;112,76
3797,00;129,14
3796,00;127,98
3795,00;123,26
3794,00;119,55
3793,00;110,20
3792,00;96,35
3791,00;77,12
3790,00;55,00
3789,00;32,93
3788,00;5,40
3787,00;-23,13
3786,00;-52,40
3785,00;-77,16
3784,00;-74,30
3783,00;-99,24
3782,00;-115,02
3781,00;-121,25
3780,00;-133,20
3779,00;-135,66
3778,00;-118,81
3777,00;-104,48
3776,00;-86,33
3775,00;-65,41
3774,00;-42,23
3773,00;-14,94
3772,00;17,84
3771,00;59,17
3770,00;81,84
3769,00;51,63
3768,00;88,54
3767,00;114,20
3766,00;136,00
3765,00;123,09
3764,00;123,28
3763,00;117,42
3762,00;105,36
3761,00;76,08
3760,00;51,87
3759,00;84,64
3758,00;32,08
3757,00;-16,76
3756,00;0,35
3755,00;-45,51
3754,00;-89,04
3753,00;-139,82
3752,00;-126,64
3751,00;-103,94
3750,00;-137,15
3749,00;-146,73
3748,00;-119,10
3747,00;-109,20
3746,00;-71,11
3745,00;-2,15
3744,00;-235,62
3743,00;-73,14
3742,00;-3,42
3741,00;1,06
3740,00;26,27
3739,00;80,80
3738,00;87,08
3737,00;128,32
3736,00;122,61
3735,00;148,30
3734,00;116,60
3733,00;114,28
3732,00;152,01
3731,00;120,20
3730,00;96,35
3729,00;68,46
3728,00;35,13
3727,00;1,61
3726,00;11,27
3725,00;-19,16
3724,00;-43,95
3723,00;-97,21
3722,00;-79,52
3721,00;-92,87
3720,00;-118,83
3719,00;-130,97
3718,00;-123,34
3717,00;-119,86
3716,00;-108,21
3715,00;-92,86
3714,00;-69,93
3713,00;-4,62
3712,00;-59,20
3711,00;-36,67
3710,00;33,66
3709,00;0,89
3708,00;42,86
3707,00;81,22
3706,00;100,27
3705,00;111,74
3704,00;120,76
3703,00;123,53
3702,00;135,58
3701,00;128,93
3700,00;106,04
3699,00;89,89
3698,00;67,54
3697,00;40,74
3696,00;26,31
3695,00;-6,31
3694,00;-32,08
3693,00;-61,70
3692,00;-108,98
3691,00;-109,17
3690,00;-99,21
3689,00;-145,44
3688,00;-135,10
3687,00;-122,58
3686,00;-119,15
3685,00;-108,76
3684,00;-100,50
3683,00;-78,25
3682,00;-53,33
3681,00;-20,17
3680,00;17,83
3679,00;3,89
3678,00;54,27
3677,00;105,38
3676,00;189,60
3675,00;87,08
3674,00;87,66
3673,00;113,04
3672,00;118,48
3671,00;131,58
3670,00;128,92
3669,00;116,13
3668,00;114,57
3667,00;73,08
3666,00;45,41
3665,00;20,26
3664,00;-7,15
3663,00;-33,01
3662,00;-57,45
3661,00;-80,39
3660,00;-98,27
3659,00;-109,34
3658,00;-120,51
3657,00;-132,55
3656,00;-147,97
3655,00;-122,07
3654,00;-106,19
3653,00;-82,63
3652,00;-34,45
3651,00;-13,58
3650,00;-15,46
3649,00;-42,52
3648,00;36,37
3647,00;2,00
3646,00;33,99
3645,00;75,40
3644,00;102,31
3643,00;118,89
3642,00;124,82
3641,00;123,92
3640,00;121,09
3639,00;109,80
3638,00;103,68
3637,00;85,97
3636,00;59,00
3635,00;24,36
3634,00;2,44
3633,00;5,69
3632,00;-39,55
3631,00;-85,25
3630,00;-144,79
3629,00;-125,35
3628,00;-84,45
3627,00;-111,04
3626,00;-124,04
3625,00;-122,79
3624,00;-116,26
3623,00;-104,97
3622,00;-79,49
3621,00;-56,84
3620,00;-18,41
3619,00;-44,07
3618,00;3,23
3617,00;-4,03
3616,00;54,09
3615,00;90,26
3614,00;83,70
3613,00;126,84
3612,00;107,12
3611,00;116,55
3610,00;122,12
3609,00;136,10
3608,00;106,14
3607,00;116,66
3606,00;93,89
3605,00;61,58
3604,00;31,89
3603,00;6,31
3602,00;-23,57
3601,00;-46,47
3600,00;-58,55
3599,00;-84,17
3598,00;-97,52
3597,00;-111,47
3596,00;-128,72
3595,00;-128,20
3594,00;-119,77
3593,00;-125,54
3592,00;-108,08
3591,00;-84,63
3590,00;-54,48
3589,00;-9,49
3588,00;-26,00
3587,00;16,78
3586,00;-9,34
3585,00;40,03
3584,00;75,93
3583,00;89,42
3582,00;106,86
3581,00;119,90
3580,00;126,99
3579,00;124,81
3578,00;117,49
3577,00;112,32
3576,00;95,89
3575,00;75,22
3574,00;59,39
3573,00;34,78
3572,00;5,59
3571,00;-25,94
3570,00;-46,31
3569,00;-95,94
3568,00;-100,99
3567,00;-111,32
3566,00;-112,21
3565,00;-113,44
3564,00;-123,79
3563,00;-123,36
3562,00;-115,33
3561,00;-98,77
3560,00;-91,87
3559,00;-70,08
3558,00;-41,18
3557,00;-19,11
3556,00;6,27
3555,00;36,46
3554,00;63,85
3553,00;84,69
3552,00;95,33
3551,00;104,56
3550,00;117,99
3549,00;124,02
3548,00;121,99
3547,00;122,59
3546,00;103,81
3545,00;101,15
3544,00;79,65
3543,00;58,89
3542,00;32,94
3541,00;4,12
3540,00;-21,99
3539,00;-46,93
3538,00;-71,02
3537,00;-96,88
3536,00;-102,80
3535,00;-113,35
3534,00;-122,81
3533,00;-124,42
3532,00;-120,35
3531,00;-113,04
3530,00;-95,78
3529,00;-81,53
3528,00;-59,59
3527,00;-44,40
3526,00;-15,27
3525,00;12,42
3524,00;41,96
3523,00;58,75
3522,00;71,85
3521,00;95,79
3520,00;112,06
3519,00;121,72
3518,00;125,17
3517,00;123,83
3516,00;117,48
3515,00;105,98
3514,00;90,06
3513,00;70,71
3512,00;46,96
3511,00;22,38
3510,00;-10,65
3509,00;-16,30
3508,00;-44,05
3507,00;-71,69
3506,00;-91,99
3505,00;-110,34
3504,00;-121,24
3503,00;-126,57
3502,00;-125,32
3501,00;-121,31
3500,00;-111,83
3499,00;-98,18
3498,00;-78,19
3497,00;-55,55
3496,00;-37,41
3495,00;-12,61
3494,00;13,74
3493,00;39,36
3492,00;63,43
3491,00;83,53
3490,00;100,53
3489,00;115,37
3488,00;123,89
3487,00;124,77
3486,00;123,06
3485,00;115,93
3484,00;103,22
3483,00;82,30
3482,00;72,04
3481,00;46,50
3480,00;25,94
3479,00;-1,88
3478,00;-28,63
3477,00;-53,27
3476,00;-76,99
3475,00;-94,68
3474,00;-107,38
3473,00;-119,12
3472,00;-124,23
3471,00;-124,46
3470,00;-119,97
3469,00;-109,70
3468,00;-94,03
3467,00;-77,43
3466,00;-57,87
3465,00;-32,09
3464,00;-5,49
3463,00;21,58
3462,00;41,67
3461,00;64,92
3460,00;85,20
3459,00;102,87
3458,00;114,71
3457,00;122,51
3456,00;125,61
3455,00;122,80
3454,00;114,85
3453,00;102,37
3452,00;85,62
3451,00;65,44
3450,00;41,93
3449,00;14,24
3448,00;-17,54
3447,00;-30,25
3446,00;-50,01
3445,00;-76,27
3444,00;-95,76
3443,00;-112,70
3442,00;-119,59
3441,00;-124,44
3440,00;-124,23
3439,00;-118,65
3438,00;-108,37
3437,00;-93,20
3436,00;-74,97
3435,00;-52,95
3434,00;-28,35
3433,00;-2,78
3432,00;22,46
3431,00;46,25
3430,00;68,15
3429,00;89,08
3428,00;104,92
3427,00;116,37
3426,00;123,14
3425,00;124,83
3424,00;121,05
3423,00;112,52
3422,00;99,62
3421,00;80,67
3420,00;66,60
3419,00;41,73
3418,00;15,50
3417,00;-10,48
3416,00;-35,96
3415,00;-59,62
3414,00;-80,97
3413,00;-98,45
3412,00;-111,95
3411,00;-121,11
3410,00;-124,79
3409,00;-124,12
3408,00;-117,78
3407,00;-106,39
3406,00;-90,86
3405,00;-71,34
3404,00;-48,63
3403,00;-25,70
3402,00;0,54
3401,00;25,63
3400,00;49,86
3399,00;72,50
3398,00;93,39
3397,00;106,73
3396,00;116,83
3395,00;123,40
3394,00;124,44
3393,00;121,43
3392,00;113,47
3391,00;98,54
3390,00;80,21
3389,00;59,24
3388,00;35,60
3387,00;10,08
3386,00;-15,86
3385,00;-40,12
3384,00;-61,72
3383,00;-82,64
3382,00;-100,31
3381,00;-113,75
3380,00;-121,83
3379,00;-124,66
3378,00;-123,26
3377,00;-116,11
3376,00;-104,30
3375,00;-88,46
3374,00;-68,97
3373,00;-45,92
3372,00;-21,37
3371,00;4,08
3370,00;29,84
3369,00;53,88
3368,00;75,90
3367,00;93,30
3366,00;109,37
3365,00;118,69
3364,00;124,51
3363,00;124,49
3362,00;120,08
3361,00;110,73
3360,00;95,92
3359,00;77,66
3358,00;55,39
3357,00;31,68
3356,00;6,63
3355,00;-17,30
3354,00;-42,77
3353,00;-65,91
3352,00;-86,14
3351,00;-102,71
3350,00;-115,08
3349,00;-122,42
3348,00;-125,02
3347,00;-122,37
3346,00;-114,99
3345,00;-102,29
3344,00;-85,49
3343,00;-65,14
3342,00;-42,52
3341,00;-17,80
3340,00;7,60
3339,00;33,15
3338,00;57,44
3337,00;79,30
3336,00;95,07
3335,00;110,33
3334,00;119,69
3333,00;124,38
3332,00;124,22
3331,00;118,74
3330,00;108,11
3329,00;93,19
3328,00;73,99
3327,00;52,40
3326,00;29,10
3325,00;3,17
3324,00;-21,88
3323,00;-46,40
3322,00;-68,89
3321,00;-88,29
3320,00;-104,51
3319,00;-116,35
3318,00;-123,34
3317,00;-125,38
3316,00;-121,97
3315,00;-112,99
3314,00;-99,10
3313,00;-83,60
3312,00;-62,45
3311,00;-38,47
3310,00;-13,73
3309,00;12,61
3308,00;34,42
3307,00;58,85
3306,00;80,83
3305,00;98,55
3304,00;112,44
3303,00;121,04
3302,00;125,19
3301,00;123,61
3300,00;117,49
3299,00;106,22
3298,00;90,17
3297,00;72,18
3296,00;49,59
3295,00;24,47
3294,00;-1,00
3293,00;-26,46
3292,00;-50,18
3291,00;-71,35
3290,00;-90,95
3289,00;-107,07
3288,00;-117,22
3287,00;-123,59
3286,00;-124,92
3285,00;-120,53
3284,00;-111,46
3283,00;-98,40
3282,00;-80,38
3281,00;-58,43
3280,00;-35,62
3279,00;-10,98
3278,00;15,45
3277,00;41,67
3276,00;61,63
3275,00;83,43
3274,00;102,33
3273,00;112,49
3272,00;121,36
3271,00;124,98
3270,00;122,72
3269,00;116,07
3268,00;104,55
3267,00;88,04
3266,00;68,26
3265,00;46,03
3264,00;21,46
3263,00;-3,74
3262,00;-29,18
3261,00;-53,84
3260,00;-74,60
3259,00;-93,64
3258,00;-108,88
3257,00;-119,09
3256,00;-123,87
3255,00;-124,34
3254,00;-120,79
3253,00;-110,58
3252,00;-95,72
3251,00;-77,26
3250,00;-55,87
3249,00;-32,12
3248,00;-6,56
3247,00;19,12
3246,00;45,21
3245,00;66,86
3244,00;84,58
3243,00;102,51
3242,00;114,71
3241,00;122,41
3240,00;125,47
3239,00;122,42
3238,00;114,35
3237,00;102,33
3236,00;86,03
3235,00;65,35
3234,00;41,62
3233,00;17,47
3232,00;-7,10
3231,00;-32,98
3230,00;-56,64
3229,00;-77,10
3228,00;-96,42
3227,00;-109,94
3226,00;-119,88
3225,00;-124,41
3224,00;-124,05
3223,00;-118,43
3222,00;-108,38
3221,00;-92,38
3220,00;-73,28
3219,00;-54,25
3218,00;-29,28
3217,00;-3,13
3216,00;21,93
3215,00;48,18
3214,00;68,90
3213,00;87,62
3212,00;104,62
3211,00;116,57
3210,00;124,14
3209,00;125,10
3208,00;121,42
3207,00;112,91
3206,00;100,11
3205,00;83,12
3204,00;62,34
3203,00;39,08
3202,00;14,36
3201,00;-11,33
3200,00;-36,42
3199,00;-60,25
3198,00;-81,79
3197,00;-97,55
3196,00;-111,79
3195,00;-120,57
3194,00;-124,90
3193,00;-123,68
3192,00;-117,33
3191,00;-106,45
3190,00;-90,56
3189,00;-71,56
3188,00;-49,29
3187,00;-24,96
3186,00;1,29
3185,00;25,40
3184,00;48,97
3183,00;71,74
3182,00;90,95
3181,00;106,76
3180,00;117,79
3179,00;124,04
3178,00;125,70
3177,00;120,85
3176,00;111,61
3175,00;98,13
3174,00;80,19
3173,00;59,02
3172,00;35,69
3171,00;10,54
3170,00;-14,96
3169,00;-39,44
3168,00;-62,66
3167,00;-83,30
3166,00;-100,50
3165,00;-113,64
3164,00;-121,70
3163,00;-125,22
3162,00;-123,34
3161,00;-116,37
3160,00;-104,55
3159,00;-88,31
3158,00;-68,44
3157,00;-45,97
3156,00;-21,44
3155,00;3,87
3154,00;29,15
3153,00;53,30
3152,00;75,13
3151,00;93,63
3150,00;108,29
3149,00;118,73
3148,00;124,00
3147,00;124,69
3146,00;119,79
3145,00;109,82
3144,00;95,62
3143,00;77,12
3142,00;56,22
3141,00;32,15
3140,00;7,10
3139,00;-18,52
3138,00;-43,03
3137,00;-65,92
3136,00;-86,07
3135,00;-102,84
3134,00;-115,41
3133,00;-123,37
3132,00;-125,03
3131,00;-122,54
3130,00;-114,64
3129,00;-102,04
3128,00;-85,23
3127,00;-65,00
3126,00;-43,41
3125,00;-18,54
3124,00;8,23
3123,00;34,81
3122,00;54,53
3121,00;76,99
3120,00;96,44
3119,00;111,32
3118,00;119,84
3117,00;124,01
3116,00;124,70
3115,00;118,97
3114,00;108,50
3113,00;93,02
3112,00;74,89
3111,00;52,54
3110,00;28,61
3109,00;3,49
3108,00;-22,40
3107,00;-45,96
3106,00;-68,51
3105,00;-88,34
3104,00;-104,51
3103,00;-116,91
3102,00;-123,26
3101,00;-125,27
3100,00;-121,63
3099,00;-113,88
3098,00;-99,85
3097,00;-81,67
3096,00;-62,56
3095,00;-40,72
3094,00;-14,88
3093,00;10,62
3092,00;35,99
3091,00;59,83
3090,00;80,74
3089,00;98,20
3088,00;111,94
3087,00;120,72
3086,00;124,71
3085,00;123,75
3084,00;117,24
3083,00;106,03
3082,00;90,33
3081,00;71,38
3080,00;48,22
3079,00;25,78
3078,00;-0,08
3077,00;-25,18
3076,00;-49,53
3075,00;-71,74
3074,00;-91,29
3073,00;-106,63
3072,00;-117,45
3071,00;-123,85
3070,00;-124,35
3069,00;-120,41
3068,00;-110,54
3067,00;-98,15
3066,00;-80,50
3065,00;-57,37
3064,00;-37,65
3063,00;-11,45
3062,00;14,50
3061,00;39,56
3060,00;62,68
3059,00;83,02
3058,00;100,40
3057,00;114,49
3056,00;121,83
3055,00;124,83
3054,00;122,90
3053,00;116,10
3052,00;104,30
3051,00;88,17
3050,00;67,76
3049,00;45,53
3048,00;22,57
3047,00;-3,64
3046,00;-29,10
3045,00;-53,11
3044,00;-74,86
3043,00;-93,57
3042,00;-108,56
3041,00;-118,85
3040,00;-124,26
3039,00;-124,47
3038,00;-119,63
3037,00;-109,77
3036,00;-95,08
3035,00;-76,52
3034,00;-56,35
3033,00;-31,03
3032,00;-5,18
3031,00;17,43
3030,00;41,26
3029,00;65,39
3028,00;85,87
3027,00;102,63
3026,00;115,17
3025,00;122,36
3024,00;124,97
3023,00;122,04
3022,00;114,42
3021,00;102,15
3020,00;85,54
3019,00;65,08
3018,00;42,33
3017,00;17,50
3016,00;-8,17
3015,00;-31,94
3014,00;-56,84
3013,00;-78,89
3012,00;-94,96
3011,00;-109,95
3010,00;-119,61
3009,00;-124,26
3008,00;-124,02
3007,00;-118,39
3006,00;-108,05
3005,00;-93,02
3004,00;-74,80
3003,00;-53,30
3002,00;-28,80
3001,00;-3,41
3000,00;21,97
2999,00;46,40
2998,00;68,95
2997,00;88,76
2996,00;104,90
2995,00;116,44
2994,00;122,99
2993,00;124,83
2992,00;121,68
2991,00;113,27
2990,00;100,09
2989,00;82,49
2988,00;62,13
2987,00;39,70
2986,00;14,32
2985,00;-11,42
2984,00;-36,30
2983,00;-59,55
2982,00;-80,70
2981,00;-98,65
2980,00;-112,03
2979,00;-120,81
2978,00;-124,98
2977,00;-123,60
2976,00;-117,06
2975,00;-105,89
2974,00;-90,26
2973,00;-71,46
2972,00;-48,98
2971,00;-24,59
2970,00;0,92
2969,00;25,93
2968,00;49,97
2967,00;72,20
2966,00;91,35
2965,00;106,54
2964,00;117,67
2963,00;123,59
2962,00;124,87
2961,00;120,80
2960,00;111,76
2959,00;97,81
2958,00;80,33
2957,00;59,12
2956,00;35,68
2955,00;10,86
2954,00;-14,61
2953,00;-39,48
2952,00;-62,89
2951,00;-83,16
2950,00;-100,64
2949,00;-113,55
2948,00;-121,66
2947,00;-124,88
2946,00;-122,81
2945,00;-115,79
2944,00;-103,96
2943,00;-87,42
2942,00;-67,99
2941,00;-45,17
2940,00;-20,89
2939,00;4,72
2938,00;29,79
2937,00;53,69
2936,00;75,40
2935,00;93,92
2934,00;108,76
2933,00;118,92
2932,00;123,96
2931,00;124,40
2930,00;119,54
2929,00;109,46
2928,00;95,42
2927,00;77,15
2926,00;55,94
2925,00;32,29
2924,00;7,48
2923,00;-17,67
2922,00;-42,11
2921,00;-64,99
2920,00;-85,09
2919,00;-101,96
2918,00;-114,53
2917,00;-122,37
2916,00;-124,97
2915,00;-122,46
2914,00;-114,96
2913,00;-102,49
2912,00;-85,91
2911,00;-65,84
2910,00;-42,98
2909,00;-18,33
2908,00;7,17
2907,00;32,06
2906,00;55,89
2905,00;77,61
2904,00;95,72
2903,00;109,76
2902,00;119,74
2901,00;124,38
2900,00;124,14
2899,00;118,88
2898,00;108,03
2897,00;93,17
2896,00;74,38
2895,00;52,63
2894,00;28,62
2893,00;3,62
2892,00;-21,63
2891,00;-46,12
2890,00;-68,65
2889,00;-88,29
2888,00;-104,43
2887,00;-116,32
2886,00;-123,17
2885,00;-125,02
2884,00;-121,33
2883,00;-112,83
2882,00;-100,12
2881,00;-82,74
2880,00;-62,22
2879,00;-39,01
2878,00;-14,09
2877,00;11,19
2876,00;36,36
2875,00;60,03
2874,00;80,87
2873,00;98,43
2872,00;112,02
2871,00;120,81
2870,00;124,71
2869,00;123,54
2868,00;117,13
2867,00;105,62
2866,00;90,36
2865,00;70,77
2864,00;48,65
2863,00;24,61
2862,00;-0,57
2861,00;-25,68
2860,00;-49,76
2859,00;-71,60
2858,00;-90,95
2857,00;-106,15
2856,00;-117,40
2855,00;-123,51
2854,00;-124,79
2853,00;-120,82
2852,00;-111,77
2851,00;-98,25
2850,00;-80,53
2849,00;-59,47
2848,00;-35,91
2847,00;-11,16
2846,00;13,93
2845,00;38,73
2844,00;62,10
2843,00;82,78
2842,00;99,89
2841,00;113,16
2840,00;121,41
2839,00;124,85
2838,00;122,82
2837,00;116,06
2836,00;104,37
2835,00;88,20
2834,00;68,39
2833,00;45,99
2832,00;21,52
2831,00;-3,82
2830,00;-28,86
2829,00;-52,89
2828,00;-74,54
2827,00;-93,42
2826,00;-108,10
2825,00;-118,54
2824,00;-123,97
2823,00;-124,22
2822,00;-119,57
2821,00;-109,91
2820,00;-95,52
2819,00;-77,38
2818,00;-55,94
2817,00;-32,15
2816,00;-7,18
2815,00;18,27
2814,00;43,00
2813,00;65,75
2812,00;85,79
2811,00;102,53
2810,00;114,80
2809,00;122,45
2808,00;124,87
2807,00;122,21
2806,00;114,62
2805,00;102,25
2804,00;85,65
2803,00;65,32
2802,00;42,55
2801,00;17,89
2800,00;-7,49
2799,00;-32,62
2798,00;-56,34
2797,00;-77,69
2796,00;-96,06
2795,00;-110,22
2794,00;-119,68
2793,00;-124,37
2792,00;-123,93
2791,00;-118,22
2790,00;-107,66
2789,00;-92,91
2788,00;-74,37
2787,00;-52,67
2786,00;-28,65
2785,00;-3,48
2784,00;21,83
2783,00;46,37
2782,00;68,84
2781,00;88,26
2780,00;104,35
2779,00;116,01
2778,00;123,03
2777,00;124,63
2776,00;121,61
2775,00;112,97
2774,00;99,85
2773,00;82,64
2772,00;62,31
2771,00;39,04
2770,00;14,17
2769,00;-11,24
2768,00;-36,06
2767,00;-59,42
2766,00;-80,41
2765,00;-98,21
2764,00;-111,83
2763,00;-120,41
2762,00;-124,70
2761,00;-123,54
2760,00;-117,19
2759,00;-106,02
2758,00;-90,76
2757,00;-71,37
2756,00;-49,07
2755,00;-24,95
2754,00;0,23
2753,00;25,49
2752,00;49,82
2751,00;71,88
2750,00;91,05
2749,00;106,43
2748,00;117,40
2747,00;123,74
2746,00;124,84
2745,00;120,64
2744,00;111,54
2743,00;97,70
2742,00;79,98
2741,00;59,02
2740,00;35,56
2739,00;10,59
2738,00;-14,79
2737,00;-39,55
2736,00;-62,57
2735,00;-83,17
2734,00;-100,23
2733,00;-113,10
2732,00;-121,48
2731,00;-124,81
2730,00;-122,83
2729,00;-115,87
2728,00;-104,17
2727,00;-88,17
2726,00;-68,31
2725,00;-45,86
2724,00;-21,29
2723,00;3,95
2722,00;29,12
2721,00;53,06
2720,00;74,68
2719,00;93,43
2718,00;108,28
2717,00;118,51
2716,00;123,94
2715,00;124,23
2714,00;119,41
2713,00;109,82
2712,00;95,42
2711,00;77,17
2710,00;55,73
2709,00;32,18
2708,00;6,88
2707,00;-18,38
2706,00;-42,88
2705,00;-65,90
2704,00;-85,93
2703,00;-102,32
2702,00;-114,87
2701,00;-122,23
2700,00;-124,67
2699,00;-122,22
2698,00;-114,34
2697,00;-102,09
2696,00;-85,57
2695,00;-65,16
2694,00;-42,43
2693,00;-17,85
2692,00;7,42
2691,00;32,70
2690,00;56,41
2689,00;77,51
2688,00;95,87
2687,00;109,99
2686,00;119,66
2685,00;124,29
2684,00;123,95
2683,00;118,36
2682,00;107,84
2681,00;92,89
2680,00;74,22
2679,00;52,54
2678,00;28,43
2677,00;3,19
2676,00;-22,01
2675,00;-46,37
2674,00;-69,06
2673,00;-88,67
2672,00;-104,23
2671,00;-115,90
2670,00;-123,03
2669,00;-124,84
2668,00;-121,22
2667,00;-112,85
2666,00;-99,89
2665,00;-82,73
2664,00;-61,99
2663,00;-38,61
2662,00;-13,99
2661,00;11,52
2660,00;36,57
2659,00;59,99
2658,00;80,88
2657,00;98,36
2656,00;111,94
2655,00;120,70
2654,00;124,51
2653,00;123,00
2652,00;116,92
2651,00;105,66
2650,00;89,96
2649,00;70,74
2648,00;48,51
2647,00;24,30
2646,00;-1,12
2645,00;-26,32
2644,00;-50,29
2643,00;-72,19
2642,00;-91,65
2641,00;-106,64
2640,00;-117,72
2639,00;-123,62
2638,00;-124,41
2637,00;-120,35
2636,00;-111,08
2635,00;-97,44
2634,00;-79,36
2633,00;-58,04
2632,00;-34,72
2631,00;-9,71
2630,00;15,57
2629,00;40,29
2628,00;63,43
2627,00;83,82
2626,00;100,51
2625,00;113,40
2624,00;121,76
2623,00;124,58
2622,00;122,45
2621,00;115,46
2620,00;103,65
2619,00;87,49
2618,00;67,79
2617,00;45,05
2616,00;20,59
2615,00;-4,50
2614,00;-29,68
2613,00;-53,70
2612,00;-75,14
2611,00;-93,82
2610,00;-108,36
2609,00;-118,59
2608,00;-124,01
2607,00;-124,27
2606,00;-119,41
2605,00;-109,45
2604,00;-94,97
2603,00;-76,44
2602,00;-55,13
2601,00;-31,50
2600,00;-6,45
2599,00;19,03
2598,00;43,33
2597,00;65,92
2596,00;86,16
2595,00;102,58
2594,00;115,16
2593,00;122,32
2592,00;124,77
2591,00;121,67
2590,00;114,50
2589,00;102,05
2588,00;85,21
2587,00;64,76
2586,00;42,11
2585,00;17,42
2584,00;-7,86
2583,00;-32,79
2582,00;-56,84
2581,00;-78,11
2580,00;-96,20
2579,00;-110,19
2578,00;-119,77
2577,00;-124,39
2576,00;-123,48
2575,00;-118,18
2574,00;-107,86
2573,00;-93,00
2572,00;-74,02
2571,00;-52,21
2570,00;-28,19
2569,00;-3,02
2568,00;22,44
2567,00;46,68
2566,00;69,14
2565,00;88,78
2564,00;104,51
2563,00;116,16
2562,00;122,87
2561,00;124,86
2560,00;121,10
2559,00;112,85
2558,00;100,01
2557,00;82,50
2556,00;62,28
2555,00;38,88
2554,00;14,03
2553,00;-11,15
2552,00;-36,05
2551,00;-59,63
2550,00;-80,61
2549,00;-98,37
2548,00;-111,50
2547,00;-120,55
2546,00;-124,62
2545,00;-123,13
2544,00;-116,99
2543,00;-105,90
2542,00;-90,45
2541,00;-71,07
2540,00;-49,04
2539,00;-24,79
2538,00;0,51
2537,00;25,76
2536,00;49,83
2535,00;72,06
2534,00;91,17
2533,00;106,23
2532,00;117,18
2531,00;123,39
2530,00;124,55
2529,00;120,52
2528,00;111,59
2527,00;97,82
2526,00;80,14
2525,00;59,14
2524,00;35,61
2523,00;10,34
2522,00;-14,62
2521,00;-39,68
2520,00;-62,66
2519,00;-83,23
2518,00;-99,94
2517,00;-113,40
2516,00;-121,25
2515,00;-124,82
2514,00;-122,84
2513,00;-115,71
2512,00;-104,25
2511,00;-88,22
2510,00;-68,25
2509,00;-45,84
2508,00;-21,24
2507,00;3,83
2506,00;29,24
2505,00;52,98
2504,00;74,81
2503,00;93,41
2502,00;108,14
2501,00;118,34
2500,00;124,36
2499,00;124,26
2498,00;119,72
2497,00;109,54
2496,00;95,40
2495,00;77,11
2494,00;55,52
2493,00;31,80
2492,00;7,01
2491,00;-18,33
2490,00;-43,12
2489,00;-65,73
2488,00;-85,78
2487,00;-102,30
2486,00;-114,64
2485,00;-122,33
2484,00;-124,73
2483,00;-122,10
2482,00;-114,32
2481,00;-101,94
2480,00;-85,42
2479,00;-65,21
2478,00;-42,48
2477,00;-17,67
2476,00;7,62
2475,00;32,54
2474,00;56,35
2473,00;77,46
2472,00;95,79
2471,00;109,94
2470,00;119,62
2469,00;124,24
2468,00;123,88
2467,00;118,20
2466,00;107,97
2465,00;92,72
2464,00;74,41
2463,00;52,55
2462,00;28,43
2461,00;3,38
2460,00;-22,13
2459,00;-46,37
2458,00;-68,81
2457,00;-88,51
2456,00;-104,63
2455,00;-116,30
2454,00;-123,00
2453,00;-124,63
2452,00;-121,21
2451,00;-112,97
2450,00;-99,94
2449,00;-82,56
2448,00;-62,06
2447,00;-38,96
2446,00;-14,18
2445,00;11,21
2444,00;36,27
2443,00;59,30
2442,00;80,45
2441,00;98,06
2440,00;111,61
2439,00;120,68
2438,00;124,55
2437,00;123,57
2436,00;117,16
2435,00;106,05
2434,00;90,73
2433,00;71,48
2432,00;49,38
2431,00;25,08
2430,00;-0,12
2429,00;-25,35
2428,00;-49,53
2427,00;-71,69
2426,00;-90,96
2425,00;-106,15
2424,00;-117,39
2423,00;-123,37
2422,00;-124,67
2421,00;-120,23
2420,00;-111,38
2419,00;-97,62
2418,00;-80,04
2417,00;-59,28
2416,00;-35,85
2415,00;-10,83
2414,00;14,61
2413,00;39,30
2412,00;62,48
2411,00;83,24
2410,00;100,21
2409,00;112,86
2408,00;121,53
2407,00;124,63
2406,00;122,98
2405,00;116,31
2404,00;104,53
2403,00;88,21
2402,00;68,72
2401,00;46,18
2400,00;21,57
2399,00;-3,53
2398,00;-28,56
2397,00;-52,59
2396,00;-74,51
2395,00;-93,15
2394,00;-108,16
2393,00;-118,35
2392,00;-124,01
2391,00;-124,16
2390,00;-119,83
2389,00;-109,66
2388,00;-95,21
2387,00;-76,21
2386,00;-54,21
2385,00;-29,80
2384,00;-3,55
2383,00;22,63
2382,00;47,89
2381,00;70,93
2380,00;91,21
2379,00;106,72
2378,00;117,49
2377,00;124,19
2376,00;124,56
2375,00;120,30
2374,00;109,26
2373,00;94,68
2372,00;77,86
2371,00;60,39
2370,00;39,54
2369,00;12,85
2368,00;-19,42
2367,00;-45,02
2366,00;-59,97
2365,00;-73,66
2364,00;-96,16
2363,00;-117,52
2362,00;-118,78
2361,00;-120,21
2360,00;-131,17
2359,00;-115,53
2358,00;-105,26
2357,00;-108,82
2356,00;-78,15
2355,00;-49,68
2354,00;-53,61
2353,00;-16,34
2352,00;18,30
2351,00;18,10
2350,00;60,49
2349,00;78,17
2348,00;119,49
2347,00;116,28
2346,00;139,64
2345,00;119,64
2344,00;127,33
2343,00;108,13
2342,00;98,18
2341,00;95,96
2340,00;46,54
2339,00;70,74
2338,00;-13,60
2337,00;3,26
2336,00;-43,61
2335,00;-56,06
2334,00;-74,97
2333,00;-105,72
2332,00;-100,65
2331,00;-129,04
2330,00;-118,06
2329,00;-129,25
2328,00;-115,97
2327,00;-109,19
2326,00;-91,12
2325,00;-70,51
2324,00;-46,20
2323,00;-35,16
2322,00;5,66
2321,00;6,54
2320,00;54,67
2319,00;56,40
2318,00;92,33
2317,00;100,63
2316,00;115,64
2315,00;126,44
2314,00;119,34
2313,00;130,21
2312,00;105,15
2311,00;108,48
2310,00;76,79
2309,00;64,52
2308,00;37,60
2307,00;9,20
2306,00;-8,15
2305,00;-45,35
2304,00;-55,95
2303,00;-88,28
2302,00;-95,14
2301,00;-115,56
2300,00;-120,12
2299,00;-123,08
2298,00;-123,91
2297,00;-114,76
2296,00;-105,13
2295,00;-87,23
2294,00;-67,70
2293,00;-47,86
2292,00;-18,42
2291,00;2,32
2290,00;30,01
2289,00;53,42
2288,00;74,98
2287,00;94,09
2286,00;108,40
2285,00;118,47
2284,00;123,46
2283,00;123,29
2282,00;118,75
2281,00;108,40
2280,00;94,79
2279,00;75,50
2278,00;54,25
2277,00;31,04
2276,00;4,95
2275,00;-18,15
2274,00;-45,35
2273,00;-65,68
2272,00;-87,17
2271,00;-102,83
2270,00;-114,74
2269,00;-122,53
2268,00;-124,32
2267,00;-122,01
2266,00;-113,50
2265,00;-101,85
2264,00;-84,24
2263,00;-65,64
2262,00;-40,88
2261,00;-18,04
2260,00;9,69
2259,00;31,58
2258,00;57,74
2257,00;77,59
2256,00;96,63
2255,00;109,65
2254,00;120,25
2253,00;123,72
2252,00;123,59
2251,00;117,93
2250,00;107,31
2249,00;92,15
2248,00;73,65
2247,00;51,28
2246,00;26,91
2245,00;2,64
2244,00;-22,76
2243,00;-45,82
2242,00;-68,82
2241,00;-88,57
2240,00;-104,95
2239,00;-114,84
2238,00;-120,91
2237,00;-123,90
2236,00;-119,42
2235,00;-111,42
2234,00;-99,54
2233,00;-81,71
2232,00;-61,15
2231,00;-36,73
2230,00;-12,92
2229,00;11,83
2228,00;36,60
2227,00;58,96
2226,00;80,71
2225,00;98,08
2224,00;110,92
2223,00;120,92
2222,00;123,88
2221,00;122,76
2220,00;116,92
2219,00;104,63
2218,00;88,57
2217,00;70,51
2216,00;48,44
2215,00;24,30
2214,00;-0,87
2213,00;-26,58
2212,00;-48,33
2211,00;-70,01
2210,00;-90,65
2209,00;-105,44
2208,00;-116,85
2207,00;-120,69
2206,00;-118,48
2205,00;-120,81
2204,00;-110,33
2203,00;-97,26
2202,00;-79,15
2201,00;-58,25
2200,00;-34,26
2199,00;-10,61
2198,00;14,69
2197,00;40,75
2196,00;62,69
2195,00;83,38
2194,00;100,29
2193,00;112,59
2192,00;121,34
2191,00;124,81
2190,00;122,04
2189,00;113,93
2188,00;103,06
2187,00;86,87
2186,00;68,10
2185,00;44,57
2184,00;19,88
2183,00;-5,02
2182,00;-29,51
2181,00;-52,13
2180,00;-74,71
2179,00;-92,97
2178,00;-107,91
2177,00;-119,22
2176,00;-123,04
2175,00;-122,44
2174,00;-119,67
2173,00;-109,47
2172,00;-94,31
2171,00;-77,67
2170,00;-54,90
2169,00;-31,15
2168,00;-5,40
2167,00;20,02
2166,00;45,16
2165,00;67,16
2164,00;86,55
2163,00;102,64
2162,00;115,53
2161,00;122,31
2160,00;124,74
2159,00;122,52
2158,00;117,65
2157,00;104,88
2156,00;87,90
2155,00;66,99
2154,00;44,75
2153,00;20,62
2152,00;-4,75
2151,00;-30,80
2150,00;-54,44
2149,00;-76,26
2148,00;-92,43
2147,00;-106,28
2146,00;-116,15
2145,00;-117,47
2144,00;-122,79
2143,00;-118,65
2142,00;-108,64
2141,00;-94,26
2140,00;-75,28
2139,00;-53,93
2138,00;-29,52
2137,00;-4,30
2136,00;19,97
2135,00;44,30
2134,00;66,54
2133,00;86,97
2132,00;102,70
2131,00;114,96
2130,00;121,97
2129,00;124,46
2128,00;121,41
2127,00;114,47
2126,00;101,09
2125,00;83,43
2124,00;62,78
2123,00;40,02
2122,00;14,39
2121,00;-10,32
2120,00;-35,68
2119,00;-58,69
2118,00;-79,93
2117,00;-97,85
2116,00;-111,66
2115,00;-120,52
2114,00;-124,36
2113,00;-123,14
2112,00;-116,57
2111,00;-105,60
2110,00;-89,62
2109,00;-70,84
2108,00;-47,58
2107,00;-24,57
2106,00;0,24
2105,00;26,04
2104,00;50,31
2103,00;71,75
2102,00;91,70
2101,00;107,02
2100,00;117,34
2099,00;123,53
2098,00;126,16
2097,00;123,05
2096,00;110,83
2095,00;95,98
2094,00;79,43
2093,00;59,41
2092,00;35,90
2091,00;9,29
2090,00;-14,34
2089,00;-38,16
2088,00;-62,47
2087,00;-83,22
2086,00;-100,29
2085,00;-113,36
2084,00;-122,10
2083,00;-124,74
2082,00;-121,86
2081,00;-113,90
2080,00;-103,36
2079,00;-87,25
2078,00;-67,63
2077,00;-45,11
2076,00;-20,50
2075,00;5,07
2074,00;29,90
2073,00;53,60
2072,00;77,18
2071,00;94,78
2070,00;109,26
2069,00;118,11
2068,00;124,07
2067,00;123,79
2066,00;117,82
2065,00;109,97
2064,00;97,03
2063,00;76,43
2062,00;54,58
2061,00;30,86
2060,00;7,07
2059,00;-18,85
2058,00;-43,73
2057,00;-66,76
2056,00;-87,62
2055,00;-103,81
2054,00;-114,54
2053,00;-121,52
2052,00;-123,60
2051,00;-119,09
2050,00;-113,21
2049,00;-100,72
2048,00;-84,56
2047,00;-64,34
2046,00;-41,55
2045,00;-16,17
2044,00;8,97
2043,00;34,13
2042,00;60,67
2041,00;76,79
2040,00;95,12
2039,00;109,96
2038,00;119,52
2037,00;124,98
2036,00;123,15
2035,00;117,96
2034,00;107,34
2033,00;92,79
2032,00;74,95
2031,00;52,82
2030,00;28,70
2029,00;2,96
2028,00;-21,96
2027,00;-46,18
2026,00;-68,29
2025,00;-88,29
2024,00;-104,29
2023,00;-116,10
2022,00;-122,16
2021,00;-123,98
2020,00;-121,42
2019,00;-111,76
2018,00;-98,40
2017,00;-82,17
2016,00;-67,61
2015,00;-39,96
2014,00;-14,74
2013,00;10,98
2012,00;36,31
2011,00;59,61
2010,00;80,51
2009,00;98,13
2008,00;112,02
2007,00;119,53
2006,00;124,73
2005,00;123,80
2004,00;118,55
2003,00;106,95
2002,00;90,88
2001,00;71,60
2000,00;49,76
1999,00;25,65
1998,00;0,92
1997,00;-24,58
1996,00;-49,64
1995,00;-71,90
1994,00;-93,08
1993,00;-111,22
1992,00;-121,53
1991,00;-120,03
1990,00;-122,89
1989,00;-119,46
1988,00;-113,87
1987,00;-98,16
1986,00;-79,23
1985,00;-58,16
1984,00;-34,11
1983,00;-8,94
1982,00;16,20
1981,00;41,42
1980,00;65,54
1979,00;85,27
1978,00;101,31
1977,00;113,81
1976,00;122,05
1975,00;125,45
1974,00;122,66
1973,00;116,33
1972,00;108,45
1971,00;88,77
1970,00;68,62
1969,00;43,84
1968,00;11,41
1967,00;3,08
1966,00;-21,56
1965,00;-49,18
1964,00;-73,56
1963,00;-92,30
1962,00;-108,46
1961,00;-117,82
1960,00;-123,92
1959,00;-124,87
1958,00;-119,49
1957,00;-110,27
1956,00;-95,11
1955,00;-79,01
1954,00;-58,14
1953,00;-33,20
1952,00;-7,87
1951,00;17,19
1950,00;42,06
1949,00;64,80
1948,00;85,35
1947,00;104,00
1946,00;114,97
1945,00;121,07
1944,00;122,05
1943,00;121,06
1942,00;126,75
1941,00;105,78
1940,00;86,81
1939,00;66,46
1938,00;43,33
1937,00;18,90
1936,00;-6,62
1935,00;-31,28
1934,00;-56,15
1933,00;-76,52
1932,00;-94,63
1931,00;-109,37
1930,00;-119,52
1929,00;-124,54
1928,00;-123,94
1927,00;-118,01
1926,00;-107,85
1925,00;-91,15
1924,00;-63,19
1923,00;-53,16
1922,00;-43,91
1921,00;-8,32
1920,00;23,97
1919,00;61,95
1918,00;74,15
1917,00;73,95
1916,00;100,56
1915,00;115,46
1914,00;122,61
1913,00;124,63
1912,00;120,35
1911,00;109,06
1910,00;102,33
1909,00;84,56
1908,00;64,78
1907,00;44,00
1906,00;15,37
1905,00;-11,99
1904,00;-34,23
1903,00;-58,38
1902,00;-80,31
1901,00;-97,53
1900,00;-111,16
1899,00;-120,42
1898,00;-124,46
1897,00;-122,61
1896,00;-112,98
1895,00;-113,17
1894,00;-94,03
1893,00;-72,56
1892,00;-47,91
1891,00;-17,03
1890,00;24,91
1889,00;0,54
1888,00;41,82
1887,00;69,71
1886,00;91,19
1885,00;107,82
1884,00;115,82
1883,00;122,48
1882,00;124,41
1881,00;120,04
1880,00;110,85
1879,00;98,74
1878,00;80,33
1877,00;59,62
1876,00;36,26
1875,00;11,15
1874,00;-14,54
1873,00;-39,35
1872,00;-64,66
1871,00;-90,10
1870,00;-118,37
1869,00;-112,88
1868,00;-122,63
1867,00;-121,40
1866,00;-125,60
1865,00;-115,88
1864,00;-104,21
1863,00;-88,12
1862,00;-66,66
1861,00;-47,61
1860,00;-21,63
1859,00;5,47
1858,00;25,70
1857,00;51,47
1856,00;73,79
1855,00;92,97
1854,00;108,13
1853,00;118,52
1852,00;123,71
1851,00;123,63
1850,00;117,97
1849,00;105,09
1848,00;92,91
1847,00;82,77
1846,00;43,15
1845,00;-10,25
1844,00;57,57
1843,00;5,61
1842,00;-33,14
1841,00;-61,43
1840,00;-84,65
1839,00;-102,24
1838,00;-117,23
1837,00;-124,74
1836,00;-123,66
1835,00;-121,61
1834,00;-113,13
1833,00;-103,05
1832,00;-79,73
1831,00;-37,05
1830,00;-36,67
1829,00;-55,79
1828,00;-6,86
1827,00;35,00
1826,00;82,94
1825,00;65,38
1824,00;83,06
1823,00;108,84
1822,00;117,99
1821,00;123,65
1820,00;123,61
1819,00;117,39
1818,00;105,39
1817,00;98,88
1816,00;76,70
1815,00;53,63
1814,00;27,59
1813,00;-4,54
1812,00;-24,94
1811,00;-63,61
1810,00;-50,17
1809,00;-84,36
1808,00;-107,96
1807,00;-112,74
1806,00;-121,84
1805,00;-124,60
1804,00;-118,61
1803,00;-104,74
1802,00;-101,85
1801,00;-86,14
1800,00;-46,53
1799,00;-66,03
1798,00;-18,73
1797,00;21,62
1796,00;39,25
1795,00;50,99
1794,00;90,11
1793,00;152,17
1792,00;97,02
1791,00;121,75
1790,00;120,06
1789,00;122,13
1788,00;117,20
1787,00;104,45
1786,00;80,77
1785,00;72,52
1784,00;61,14
1783,00;25,27
1782,00;-10,24
1781,00;-49,86
1780,00;-30,88
1779,00;-65,40
1778,00;-86,90
1777,00;-107,22
1776,00;-128,17
1775,00;-119,49
1774,00;-116,46
1773,00;-119,30
1772,00;-123,06
1771,00;-136,25
1770,00;-86,87
1769,00;-35,82
1768,00;-64,97
1767,00;-29,97
1766,00;10,39
1765,00;39,60
1764,00;65,42
1763,00;97,80
1762,00;141,23
1761,00;95,95
1760,00;115,26
1759,00;123,33
1758,00;117,70
1757,00;121,77
1756,00;118,62
1755,00;90,11
1754,00;64,30
1753,00;31,29
1752,00;-30,10
1751,00;42,55
1750,00;-26,19
1749,00;-71,10
1748,00;-61,74
1747,00;-81,98
1746,00;-101,82
1745,00;-116,06
1744,00;-127,04
1743,00;-135,54
1742,00;-116,48
1741,00;-93,73
1740,00;-89,74
1739,00;-108,93
1738,00;-58,49
1737,00;-32,39
1736,00;20,10
1735,00;138,22
1734,00;31,87
1733,00;-5,38
1732,00;65,16
1731,00;106,19
1730,00;129,08
1729,00;114,13
1728,00;122,39
1727,00;121,74
1726,00;113,90
1725,00;98,32
1724,00;75,34
1723,00;77,72
1722,00;43,28
1721,00;14,86
1720,00;-29,66
1719,00;-122,30
1718,00;-90,04
1717,00;-14,90
1716,00;-92,22
1715,00;-114,55
1714,00;-113,13
1713,00;-118,83
1712,00;-121,11
1711,00;-112,65
1710,00;-117,34
1709,00;-93,58
1708,00;-59,41
1707,00;-14,10
1706,00;-57,45
1705,00;14,33
1704,00;-13,89
1703,00;45,98
1702,00;174,55
1701,00;662,14
1700,00;1039,31
1699,00;293,65
1698,00;133,35
1697,00;119,09
1696,00;198,00
1695,00;154,06
1694,00;109,18
1693,00;84,89
1692,00;60,16
1691,00;21,78
1690,00;15,33
1689,00;-20,95
1688,00;-20,99
1687,00;-59,39
1686,00;-115,38
1685,00;-301,44
1684,00;-115,26
1683,00;-99,39
1682,00;-114,71
1681,00;-117,91
1680,00;-133,11
1679,00;-113,16
1678,00;-88,09
1677,00;-55,69
1676,00;15,44
1675,00;-121,96
1674,00;-28,17
1673,00;30,54
1672,00;86,86
1671,00;57,44
1670,00;122,17
1669,00;102,46
1668,00;100,19
1667,00;117,61
1666,00;122,91
1665,00;117,05
1664,00;97,00
1663,00;91,07
1662,00;106,51
1661,00;72,01
1660,00;38,45
1659,00;9,95
1658,00;-18,94
1657,00;-46,17
1656,00;-77,60
1655,00;-149,71
1654,00;-190,95
1653,00;-544,15
1652,00;-96,97
1651,00;-115,91
1650,00;-116,61
1649,00;-97,10
1648,00;-90,27
1647,00;-89,37
1646,00;-132,55
1645,00;-90,41
1644,00;-32,31
1643,00;6,14
1642,00;25,62
1641,00;56,24
1640,00;73,92
1639,00;98,43
1638,00;132,82
1637,00;117,05
1636,00;151,14
1635,00;191,59
1634,00;125,97
1633,00;111,58
1632,00;96,25
1631,00;76,85
1630,00;51,33
1629,00;13,78
1628,00;-15,13
1627,00;8,93
1626,00;-40,14
1625,00;-77,92
1624,00;-138,33
1623,00;-84,59
1622,00;-101,11
1621,00;-119,39
1620,00;-123,22
1619,00;-117,53
1618,00;-95,56
1617,00;-83,43
1616,00;-147,80
1615,00;-81,69
1614,00;-46,91
1613,00;-18,68
1612,00;7,83
1611,00;35,91
1610,00;70,37
1609,00;68,22
1608,00;95,92
1607,00;110,34
1606,00;116,23
1605,00;122,81
1604,00;122,53
1603,00;121,73
1602,00;107,52
1601,00;96,71
1600,00;76,26
1599,00;52,80
1598,00;27,62
1597,00;-1,03
1596,00;-21,80
1595,00;-53,47
1594,00;-60,89
1593,00;-85,69
1592,00;-105,45
1591,00;-115,34
1590,00;-123,74
1589,00;-124,50
1588,00;-121,36
1587,00;-113,15
1586,00;-100,15
1585,00;-82,62
1584,00;-61,74
1583,00;-38,97
1582,00;-14,86
1581,00;11,59
1580,00;37,59
1579,00;64,87
1578,00;98,39
1577,00;145,30
1576,00;138,58
1575,00;104,17
1574,00;120,28
1573,00;122,52
1572,00;113,08
1571,00;87,43
1570,00;52,13
1569,00;137,91
1568,00;71,32
1567,00;25,68
1566,00;-15,76
1565,00;-43,28
1564,00;-28,70
1563,00;-69,52
1562,00;-100,79
1561,00;-148,41
1560,00;-446,99
1559,00;-134,48
1558,00;-218,93
1557,00;-139,80
1556,00;-106,42
1555,00;-67,64
1554,00;-150,60
1553,00;-78,08
1552,00;-34,60
1551,00;18,84
1550,00;21,48
1549,00;6,15
1548,00;56,01
1547,00;87,97
1546,00;128,58
1545,00;131,91
1544,00;115,26
1543,00;120,52
1542,00;150,75
1541,00;94,94
1540,00;100,20
1539,00;281,04
1538,00;132,21
1537,00;58,43
1536,00;11,74
1535,00;-27,42
1534,00;-114,22
1533,00;6,65
1532,00;-63,08
1531,00;-76,98
1530,00;-106,04
1529,00;-130,34
1528,00;-125,24
1527,00;-125,07
1526,00;-107,06
1525,00;-141,13
1524,00;-87,23
1523,00;-28,22
1522,00;-27,19
1521,00;-81,70
1520,00;-89,14
1519,00;7,95
1518,00;105,83
1517,00;69,38
1516,00;53,07
1515,00;93,57
1514,00;104,79
1513,00;126,10
1512,00;134,80
1511,00;113,38
1510,00;102,15
1509,00;79,23
1508,00;42,91
1507,00;58,64
1506,00;128,52
1505,00;113,17
1504,00;15,31
1503,00;-32,89
1502,00;-65,49
1501,00;-74,68
1500,00;-105,57
1499,00;-150,04
1498,00;-108,26
1497,00;-124,83
1496,00;-164,06
1495,00;-123,07
1494,00;-108,54
1493,00;-89,68
1492,00;-54,10
1491,00;-3,09
1490,00;-33,56
1489,00;-49,50
1488,00;35,30
1487,00;15,88
1486,00;49,23
1485,00;81,31
1484,00;102,53
1483,00;115,72
1482,00;124,84
1481,00;129,99
1480,00;120,89
1479,00;111,21
1478,00;91,98
1477,00;50,08
1476,00;101,26
1475,00;36,45
1474,00;-48,13
1473,00;-11,96
1472,00;-1,72
1471,00;-14,80
1470,00;-69,55
1469,00;-96,22
1468,00;-112,13
1467,00;-120,19
1466,00;-122,45
1465,00;-153,29
1464,00;-128,18
1463,00;-107,50
1462,00;-88,88
1461,00;-63,64
1460,00;-16,40
1459,00;24,27
1458,00;24,25
1457,00;72,29
1456,00;-5,74
1455,00;41,67
1454,00;77,13
1453,00;107,46
1452,00;121,83
1451,00;120,72
1450,00;122,35
1449,00;112,51
1448,00;126,08
1447,00;111,05
1446,00;83,99
1445,00;60,76
1444,00;36,42
1443,00;10,79
1442,00;-15,36
1441,00;-39,83
1440,00;-63,44
1439,00;-87,10
1438,00;-115,84
1437,00;-197,19
1436,00;-110,91
1435,00;-119,03
1434,00;-119,97
1433,00;-118,63
1432,00;-103,22
1431,00;-75,39
1430,00;-70,19
1429,00;-61,76
1428,00;-27,97
1427,00;2,48
1426,00;31,46
1425,00;68,32
1424,00;92,96
1423,00;75,92
1422,00;104,76
1421,00;119,56
1420,00;138,27
1419,00;164,83
1418,00;116,95
1417,00;120,78
1416,00;103,52
1415,00;80,94
1414,00;55,97
1413,00;28,75
1412,00;2,36
1411,00;-14,86
1410,00;-43,00
1409,00;-63,71
1408,00;-86,02
1407,00;-103,96
1406,00;-119,99
1405,00;-137,07
1404,00;-122,49
1403,00;-121,36
1402,00;-113,38
1401,00;-96,20
1400,00;-61,65
1399,00;-87,25
1398,00;-50,62
1397,00;-20,93
1396,00;31,09
1395,00;51,20
1394,00;16,37
1393,00;65,22
1392,00;93,87
1391,00;110,44
1390,00;118,57
1389,00;122,15
1388,00;123,49
1387,00;131,15
1386,00;115,69
1385,00;94,80
1384,00;74,60
1383,00;52,78
1382,00;29,44
1381,00;2,88
1380,00;-25,82
1379,00;-46,56
1378,00;-68,16
1377,00;-85,97
1376,00;-110,30
1375,00;-124,47
1374,00;-130,25
1373,00;-123,05
1372,00;-121,21
1371,00;-112,34
1370,00;-96,55
1369,00;-76,49
1368,00;-73,51
1367,00;-41,17
1366,00;-13,36
1365,00;18,90
1364,00;3,79
1363,00;0,62
1362,00;33,63
1361,00;94,27
1360,00;105,37
1359,00;119,81
1358,00;125,27
1357,00;122,91
1356,00;115,38
1355,00;106,59
1354,00;93,92
1353,00;71,49
1352,00;49,08
1351,00;24,34
1350,00;-4,00
1349,00;-22,93
1348,00;-48,04
1347,00;-71,49
1346,00;-91,15
1345,00;-106,51
1344,00;-117,44
1343,00;-122,99
1342,00;-122,33
1341,00;-113,57
1340,00;-114,11
1339,00;-69,45
1338,00;-1,69
1337,00;0,16
1336,00;-0,17
1335,00;-12,57
1334,00;14,12
1333,00;39,59
1332,00;62,41
1331,00;83,01
1330,00;100,55
1329,00;113,02
1328,00;121,40
1327,00;124,51
1326,00;123,03
1325,00;115,83
1324,00;103,76
1323,00;88,34
1322,00;67,17
1321,00;42,15
1320,00;17,23
1319,00;-4,89
1318,00;-25,35
1317,00;-52,72
1316,00;-71,57
1315,00;-95,42
1314,00;-108,90
1313,00;-119,47
1312,00;-123,29
1311,00;-123,94
1310,00;-119,31
1309,00;-108,43
1308,00;-96,72
1307,00;-77,88
1306,00;-55,60
1305,00;-32,32
1304,00;-7,22
1303,00;18,17
1302,00;43,20
1301,00;65,87
1300,00;85,74
1299,00;102,43
1298,00;114,78
1297,00;122,70
1296,00;124,66
1295,00;121,86
1294,00;114,73
1293,00;101,87
1292,00;85,01
1291,00;64,15
1290,00;43,03
1289,00;15,76
1288,00;-8,61
1287,00;-29,83
1286,00;-55,28
1285,00;-77,79
1284,00;-96,00
1283,00;-110,03
1282,00;-119,74
1281,00;-124,51
1280,00;-124,46
1279,00;-118,44
1278,00;-107,89
1277,00;-92,97
1276,00;-74,22
1275,00;-52,10
1274,00;-27,78
1273,00;-1,51
1272,00;24,48
1271,00;45,00
1270,00;69,22
1269,00;88,11
1268,00;104,24
1267,00;116,48
1266,00;122,90
1265,00;124,78
1264,00;121,50
1263,00;113,14
1262,00;99,53
1261,00;80,45
1260,00;64,81
1259,00;40,17
1258,00;14,49
1257,00;-11,23
1256,00;-35,87
1255,00;-60,38
1254,00;-82,15
1253,00;-100,02
1252,00;-116,07
1251,00;-121,05
1250,00;-124,71
1249,00;-123,56
1248,00;-117,20
1247,00;-105,96
1246,00;-90,42
1245,00;-70,57
1244,00;-49,13
1243,00;-25,24
1242,00;0,22
1241,00;25,99
1240,00;50,38
1239,00;72,11
1238,00;91,17
1237,00;106,94
1236,00;118,91
1235,00;124,34
1234,00;125,01
1233,00;119,21
1232,00;112,07
1231,00;98,18
1230,00;80,01
1229,00;58,75
1228,00;35,14
1227,00;9,41
1226,00;-16,34
1225,00;-39,83
1224,00;-62,78
1223,00;-83,86
1222,00;-100,78
1221,00;-113,83
1220,00;-115,71
1219,00;-123,79
1218,00;-120,83
1217,00;-116,63
1216,00;-104,46
1215,00;-87,90
1214,00;-67,72
1213,00;-44,24
1212,00;-21,48
1211,00;3,74
1210,00;29,51
1209,00;53,45
1208,00;75,41
1207,00;94,02
1206,00;109,83
1205,00;119,32
1204,00;124,84
1203,00;125,16
1202,00;119,29
1201,00;108,97
1200,00;95,71
1199,00;76,75
1198,00;53,47
1197,00;32,08
1196,00;6,54
1195,00;-18,31
1194,00;-43,34
1193,00;-66,72
1192,00;-86,95
1191,00;-103,13
1190,00;-114,89
1189,00;-122,57
1188,00;-124,86
1187,00;-122,20
1186,00;-114,37
1185,00;-102,16
1184,00;-85,41
1183,00;-64,73
1182,00;-42,30
1181,00;-17,76
1180,00;7,71
1179,00;32,99
1178,00;56,42
1177,00;77,90
1176,00;96,38
1175,00;110,91
1174,00;119,62
1173,00;124,41
1172,00;123,96
1171,00;118,17
1170,00;108,16
1169,00;92,93
1168,00;74,17
1167,00;51,96
1166,00;27,98
1165,00;2,58
1164,00;-22,19
1163,00;-46,79
1162,00;-69,51
1161,00;-89,35
1160,00;-104,81
1159,00;-116,30
1158,00;-123,65
1157,00;-125,27
1156,00;-121,63
1155,00;-113,40
1154,00;-100,37
1153,00;-80,43
1152,00;-62,55
1151,00;-39,07
1150,00;-13,92
1149,00;10,90
1148,00;36,75
1147,00;59,50
1146,00;81,15
1145,00;98,75
1144,00;112,72
1143,00;121,30
1142,00;123,79
1141,00;122,88
1140,00;117,66
1139,00;106,26
1138,00;89,87
1137,00;71,39
1136,00;48,63
1135,00;24,94
1134,00;-0,51
1133,00;-25,52
1132,00;-50,25
1131,00;-72,83
1130,00;-91,34
1129,00;-106,72
1128,00;-118,61
1127,00;-124,47
1126,00;-125,01
1125,00;-120,50
1124,00;-111,68
1123,00;-97,68
1122,00;-78,85
1121,00;-54,50
1120,00;-35,23
1119,00;-10,28
1118,00;15,73
1117,00;39,95
1116,00;63,72
1115,00;84,48
1114,00;101,56
1113,00;113,99
1112,00;122,27
1111,00;124,41
1110,00;123,74
1109,00;116,00
1108,00;103,30
1107,00;87,20
1106,00;68,00
1105,00;45,25
1104,00;20,41
1103,00;-4,88
1102,00;-29,68
1101,00;-53,41
1100,00;-75,32
1099,00;-93,36
1098,00;-108,35
1097,00;-118,67
1096,00;-123,53
1095,00;-123,45
1094,00;-118,76
1093,00;-109,29
1092,00;-94,52
1091,00;-76,67
1090,00;-54,97
1089,00;-31,81
1088,00;-6,42
1087,00;19,00
1086,00;43,04
1085,00;65,46
1084,00;86,11
1083,00;102,03
1082,00;113,69
1081,00;121,72
1080,00;124,06
1079,00;121,85
1078,00;113,22
1077,00;101,27
1076,00;85,35
1075,00;65,23
1074,00;42,26
1073,00;17,89
1072,00;-6,87
1071,00;-31,63
1070,00;-55,47
1069,00;-76,93
1068,00;-94,52
1067,00;-108,89
1066,00;-118,70
1065,00;-122,87
1064,00;-122,70
1063,00;-117,41
1062,00;-107,34
1061,00;-92,06
1060,00;-73,39
1059,00;-52,05
1058,00;-28,65
1057,00;-3,46
1056,00;22,13
1055,00;46,41
1054,00;68,67
1053,00;88,17
1052,00;102,81
1051,00;113,61
1050,00;120,20
1049,00;122,46
1048,00;119,28
1047,00;111,06
1046,00;98,91
1045,00;82,15
1044,00;62,18
1043,00;38,98
1042,00;15,09
1041,00;-9,72
1040,00;-34,22
1039,00;-57,00
1038,00;-76,88
1037,00;-94,07
1036,00;-107,45
1035,00;-116,12
1034,00;-119,50
1033,00;-118,25
1032,00;-112,49
1031,00;-101,79
1030,00;-86,95
1029,00;-68,75
1028,00;-47,72
1027,00;-24,36
1026,00;-0,02
1025,00;23,32
1024,00;46,16
1023,00;68,05
1022,00;85,86
1021,00;99,88
1020,00;110,48
1019,00;116,47
1018,00;117,23
1017,00;113,47
1016,00;104,92
1015,00;92,37
1014,00;75,86
1013,00;55,48
1012,00;33,48
1011,00;10,57
1010,00;-13,13
1009,00;-36,59
1008,00;-57,77
1007,00;-76,97
1006,00;-92,91
1005,00;-105,28
1004,00;-112,68
1003,00;-115,59
1002,00;-114,08
1001,00;-107,61
1000,00;-96,54
999,00;-81,53
998,00;-63,62
997,00;-43,09
996,00;-20,17
995,00;3,54
994,00;26,11
993,00;48,51
992,00;68,87
991,00;85,93
990,00;99,28
989,00;108,84
988,00;114,13
987,00;113,91
986,00;109,06
985,00;99,83
984,00;86,81
983,00;69,71
982,00;50,31
981,00;29,06
980,00;6,66
979,00;-16,56
978,00;-38,74
977,00;-59,25
976,00;-77,41
975,00;-93,00
974,00;-104,18
973,00;-111,50
972,00;-114,31
971,00;-111,86
970,00;-105,31
969,00;-94,23
968,00;-78,87
967,00;-60,73
966,00;-39,47
965,00;-16,38
964,00;7,18
963,00;30,01
962,00;52,40
961,00;72,44
960,00;88,78
959,00;101,63
958,00;110,11
957,00;113,68
956,00;112,58
955,00;107,15
954,00;97,35
953,00;83,68
952,00;66,39
951,00;46,75
950,00;25,60
949,00;2,83
948,00;-20,19
947,00;-41,75
946,00;-62,01
945,00;-79,33
944,00;-93,17
943,00;-103,82
942,00;-109,82
941,00;-111,18
940,00;-107,97
939,00;-100,26
938,00;-88,68
937,00;-73,23
936,00;-55,20
935,00;-33,88
934,00;-11,73
933,00;10,21
932,00;32,40
931,00;53,10
930,00;71,40
929,00;86,54
928,00;98,30
927,00;106,18
926,00;108,59
925,00;108,16
924,00;102,19
923,00;92,16
922,00;78,60
921,00;61,41
920,00;42,09
919,00;21,22
918,00;-0,95
917,00;-22,97
916,00;-43,48
915,00;-62,41
914,00;-79,29
913,00;-91,95
912,00;-100,99
911,00;-106,27
910,00;-107,04
909,00;-103,31
908,00;-94,63
907,00;-82,70
906,00;-67,41
905,00;-49,52
904,00;-28,84
903,00;-7,87
902,00;12,84
901,00;34,10
900,00;53,78
899,00;71,02
898,00;84,81
897,00;95,89
896,00;102,30
895,00;104,92
894,00;102,96
893,00;97,07
892,00;86,47
891,00;72,57
890,00;55,32
889,00;36,90
888,00;16,66
887,00;-4,46
886,00;-24,84
885,00;-44,77
884,00;-61,55
883,00;-76,32
882,00;-89,54
881,00;-98,04
880,00;-102,92
879,00;-101,23
878,00;-96,97
877,00;-91,27
876,00;-78,70
875,00;-64,31
874,00;-46,14
873,00;-26,70
872,00;-6,70
871,00;14,36
870,00;35,20
869,00;53,90
868,00;70,93
867,00;85,24
866,00;94,20
865,00;98,42
864,00;104,92
863,00;103,20
862,00;97,02
861,00;86,73
860,00;72,11
859,00;54,97
858,00;36,17
857,00;15,11
856,00;-6,44
855,00;-27,44
854,00;-47,53
853,00;-66,69
852,00;-82,02
851,00;-93,50
850,00;-102,51
849,00;-106,91
848,00;-108,50
847,00;-103,63
846,00;-94,94
845,00;-82,02
844,00;-65,15
843,00;-45,79
842,00;-24,90
841,00;-2,62
840,00;17,90
839,00;40,10
838,00;59,39
837,00;76,32
836,00;89,20
835,00;99,18
834,00;106,07
833,00;107,53
832,00;105,31
831,00;97,50
830,00;85,60
829,00;70,79
828,00;51,54
827,00;31,92
826,00;11,20
825,00;-10,29
824,00;-31,09
823,00;-51,23
822,00;-69,67
821,00;-85,57
820,00;-98,14
819,00;-107,12
818,00;-111,12
817,00;-110,16
816,00;-104,68
815,00;-91,24
814,00;-75,74
813,00;-64,58
812,00;-45,30
811,00;-23,41
810,00;-0,37
809,00;22,80
808,00;44,04
807,00;64,20
806,00;81,79
805,00;95,49
804,00;105,03
803,00;111,68
802,00;112,67
801,00;109,51
800,00;101,02
799,00;88,82
798,00;73,43
797,00;54,32
796,00;32,78
795,00;10,44
794,00;-12,50
793,00;-35,35
792,00;-58,24
791,00;-77,24
790,00;-93,33
789,00;-105,51
788,00;-113,80
787,00;-117,13
786,00;-115,77
785,00;-105,90
784,00;-93,80
783,00;-83,35
782,00;-64,17
781,00;-43,91
780,00;-20,97
779,00;3,16
778,00;26,79
777,00;48,52
776,00;69,55
775,00;86,56
774,00;103,00
773,00;112,32
772,00;117,23
771,00;116,32
770,00;112,97
769,00;103,19
768,00;89,73
767,00;73,48
766,00;54,11
765,00;31,37
764,00;6,99
763,00;-16,86
762,00;-41,34
761,00;-62,70
760,00;-81,99
759,00;-98,95
758,00;-109,14
757,00;-115,59
756,00;-118,15
755,00;-116,29
754,00;-109,54
753,00;-97,54
752,00;-81,86
751,00;-62,17
750,00;-40,82
749,00;-17,34
748,00;7,33
747,00;30,73
746,00;53,46
745,00;74,53
744,00;92,21
743,00;105,12
742,00;115,17
741,00;119,45
740,00;118,92
739,00;113,22
738,00;103,63
737,00;90,21
736,00;74,00
735,00;51,12
734,00;28,19
733,00;3,99
732,00;-21,47
731,00;-45,12
730,00;-66,84
729,00;-83,89
728,00;-103,05
727,00;-115,17
726,00;-121,91
725,00;-123,95
724,00;-120,50
723,00;-112,73
722,00;-95,86
721,00;-74,68
720,00;-66,56
719,00;-40,03
718,00;-14,48
717,00;11,01
716,00;34,28
715,00;57,69
714,00;78,36
713,00;94,61
712,00;108,52
711,00;117,34
710,00;121,88
709,00;120,26
708,00;114,00
707,00;102,66
706,00;87,51
705,00;69,88
704,00;46,38
703,00;25,65
702,00;-1,22
701,00;-25,67
700,00;-49,27
699,00;-72,36
698,00;-88,25
697,00;-105,75
696,00;-114,98
695,00;-121,09
694,00;-121,20
693,00;-119,14
692,00;-112,22
691,00;-86,59
690,00;-44,50
689,00;-7,53
688,00;-23,48
687,00;-13,55
686,00;20,60
685,00;34,36
684,00;65,94
683,00;85,55
682,00;97,25
681,00;117,86
680,00;121,15
679,00;117,67
678,00;120,19
677,00;116,23
676,00;107,69
675,00;85,24
674,00;74,26
673,00;45,32
672,00;15,00
671,00;-5,28
670,00;-43,10
669,00;-228,42
668,00;-103,09
667,00;-42,87
666,00;-99,23
665,00;-120,14
664,00;-127,88
663,00;-127,30
662,00;-121,63
661,00;-111,22
660,00;-87,14
659,00;-52,65
658,00;-56,34
657,00;-24,53
656,00;-8,49
655,00;21,93
654,00;49,25
653,00;64,73
652,00;81,22
651,00;99,07
650,00;112,54
649,00;128,45
648,00;125,91
647,00;124,50
646,00;120,60
645,00;97,14
644,00;68,22
643,00;59,58
642,00;30,00
641,00;14,58
640,00;0,42
639,00;-33,50
638,00;-55,01
637,00;-77,25
636,00;-95,05
635,00;-105,74
634,00;-114,23
633,00;-118,86
632,00;-116,93
631,00;-112,99
630,00;-98,38
629,00;-88,51
628,00;-69,72
627,00;-40,54
626,00;-10,71
625,00;-0,64
624,00;26,64
623,00;45,67
622,00;68,08
621,00;87,50
620,00;98,83
619,00;109,90
618,00;115,86
617,00;107,70
616,00;110,32
615,00;104,17
614,00;89,01
613,00;77,23
612,00;57,08
611,00;33,24
610,00;16,62
609,00;-11,87
608,00;-34,91
607,00;-52,85
606,00;-71,81
605,00;-86,54
604,00;-99,04
603,00;-106,83
602,00;-109,65
601,00;-82,48
600,00;-0,37
