Created as New Dataset;Sample 059 By Administrator Date donderdag, februari 26 2026,
cm-1,%T,comma
4000,91,93
3999,92,1
3998,91,79
3997,91,82
3996,92,0
3995,91,54
3994,92,17
3993,92,4
3992,91,79
3991,91,90
3990,92,7
3989,91,48
3988,91,93
3987,92,1
3986,91,91
3985,91,97
3984,92,4
3983,91,58
3982,92,16
3981,92,4
3980,91,75
3979,91,73
3978,91,83
3977,92,24
3976,92,19
3975,92,17
3974,91,78
3973,92,21
3972,92,29
3971,92,14
3970,91,94
3969,91,72
3968,91,68
3967,92,9
3966,92,6
3965,91,65
3964,91,83
3963,91,98
3962,91,82
3961,92,44
3960,92,3
3959,91,96
3958,91,99
3957,91,96
3956,92,37
3955,92,34
3954,92,11
3953,92,7
3952,92,12
3951,92,37
3950,92,80
3949,92,76
3948,92,48
3947,92,24
3946,92,28
3945,92,45
3944,92,38
3943,92,25
3942,92,48
3941,92,25
3940,92,2
3939,92,10
3938,92,13
3937,92,7
3936,91,87
3935,91,80
3934,92,45
3933,93,36
3932,92,84
3931,92,77
3930,92,68
3929,92,85
3928,92,42
3927,92,41
3926,92,47
3925,93,88
3924,93,34
3923,92,94
3922,92,37
3921,92,50
3920,93,0
3919,92,56
3918,92,67
3917,93,5
3916,92,90
3915,92,55
3914,92,22
3913,92,28
3912,92,23
3911,92,23
3910,92,29
3909,92,8
3908,92,38
3907,92,91
3906,93,97
3905,94,50
3904,94,63
3903,94,25
3902,93,39
3901,93,66
3900,94,38
3899,94,65
3898,93,62
3897,92,75
3896,92,42
3895,92,47
3894,92,63
3893,93,44
3892,93,64
3891,94,26
3890,93,31
3889,92,45
3888,92,48
3887,93,50
3886,92,66
3885,93,96
3884,93,91
3883,93,61
3882,93,60
3881,94,7
3880,94,23
3879,93,30
3878,92,40
3877,92,56
3876,92,78
3875,93,55
3874,93,72
3873,93,88
3872,93,63
3871,94,81
3870,96,34
3869,95,10
3868,93,55
3867,93,37
3866,94,34
3865,94,23
3864,94,59
3863,93,98
3862,93,54
3861,93,55
3860,93,8
3859,92,73
3858,93,28
3857,94,19
3856,94,96
3855,96,59
3854,85,54
3853,97,16
3852,97,96
3851,94,38
3850,93,63
3849,93,36
3848,92,45
3847,92,57
3846,92,78
3845,93,33
3844,93,92
3843,93,92
3842,94,9
3841,95,9
3840,96,14
3839,95,26
3838,96,95
3837,95,9
3836,95,7
3835,95,68
3834,93,64
3833,93,68
3832,94,4
3831,93,72
3830,93,32
3829,92,87
3828,93,91
3827,94,45
3826,93,79
3825,93,26
3824,93,66
3823,94,56
3822,95,78
3821,96,63
3820,95,69
3819,94,30
3818,94,33
3817,94,54
3816,95,93
3815,94,25
3814,93,36
3813,92,80
3812,93,15
3811,92,64
3810,92,51
3809,93,0
3808,93,75
3807,93,94
3806,94,0
3805,93,62
3804,93,70
3803,95,23
3802,96,26
3801,96,68
3800,94,92
3799,93,93
3798,93,91
3797,94,65
3796,94,28
3795,93,31
3794,92,97
3793,92,72
3792,92,66
3791,92,26
3790,92,64
3789,92,57
3788,92,62
3787,92,96
3786,93,20
3785,93,85
3784,93,49
3783,93,6
3782,93,13
3781,92,98
3780,93,83
3779,94,26
3778,93,83
3777,92,71
3776,92,63
3775,92,35
3774,92,78
3773,92,89
3772,93,6
3771,94,1
3770,94,27
3769,93,99
3768,93,11
3767,93,71
3766,94,10
3765,93,70
3764,93,28
3763,93,18
3762,93,28
3761,93,49
3760,94,59
3759,94,97
3758,94,23
3757,94,42
3756,94,16
3755,93,99
3754,94,50
3753,96,43
3752,99,4
3751,97,0
3750,96,43
3749,96,1
3748,95,25
3747,94,89
3746,95,79
3745,96,89
3744,94,86
3743,94,75
3742,94,36
3741,94,97
3740,94,49
3739,94,38
3738,94,77
3737,95,50
3736,96,15
3735,95,41
3734,96,83
3733,95,66
3732,96,32
3731,94,50
3730,93,73
3729,93,22
3728,93,27
3727,93,71
3726,94,94
3725,94,75
3724,93,87
3723,94,61
3722,95,65
3721,93,66
3720,93,70
3719,93,90
3718,93,61
3717,93,22
3716,93,34
3715,93,63
3714,93,88
3713,94,13
3712,95,57
3711,95,91
3710,94,86
3709,95,21
3708,94,2
3707,93,39
3706,93,49
3705,93,7
3704,93,16
3703,93,50
3702,94,75
3701,94,13
3700,93,37
3699,93,41
3698,92,98
3697,93,31
3696,93,19
3695,93,5
3694,93,31
3693,93,63
3692,94,33
3691,95,38
3690,96,66
3689,97,64
3688,96,50
3687,94,49
3686,93,61
3685,93,46
3684,93,51
3683,92,90
3682,92,85
3681,93,8
3680,94,34
3679,95,12
3678,94,74
3677,95,92
3676,99,41
3675,95,85
3674,95,92
3673,94,30
3672,94,73
3671,96,49
3670,96,86
3669,95,48
3668,94,20
3667,93,28
3666,92,81
3665,93,14
3664,93,16
3663,93,1
3662,92,87
3661,93,24
3660,93,35
3659,93,64
3658,93,63
3657,93,98
3656,94,93
3655,93,77
3654,93,47
3653,93,88
3652,94,76
3651,96,10
3650,97,95
3649,98,24
3648,97,72
3647,96,70
3646,95,25
3645,93,96
3644,93,10
3643,93,49
3642,93,73
3641,93,26
3640,93,41
3639,93,58
3638,93,69
3637,93,48
3636,93,51
3635,93,75
3634,94,33
3633,93,93
3632,93,77
3631,94,71
3630,96,19
3629,96,67
3628,96,37
3627,94,28
3626,94,31
3625,93,49
3624,93,52
3623,93,65
3622,93,58
3621,95,1
3620,95,32
3619,95,44
3618,95,2
3617,94,73
3616,94,53
3615,95,14
3614,95,19
3613,95,2
3612,94,70
3611,94,15
3610,94,62
3609,94,79
3608,94,55
3607,95,62
3606,93,87
3605,93,47
3604,93,36
3603,93,57
3602,93,92
3601,94,52
3600,94,14
3599,93,98
3598,94,6
3597,94,13
3596,94,30
3595,95,21
3594,94,22
3593,94,50
3592,93,53
3591,93,63
3590,93,53
3589,94,62
3588,95,57
3587,96,12
3586,95,21
3585,93,69
3584,93,70
3583,93,34
3582,93,60
3581,93,45
3580,93,36
3579,93,67
3578,93,32
3577,94,6
3576,93,86
3575,93,59
3574,93,36
3573,93,21
3572,93,25
3571,93,37
3570,93,98
3569,94,40
3568,94,97
3567,96,17
3566,96,30
3565,95,20
3564,94,23
3563,94,26
3562,93,72
3561,93,81
3560,94,14
3559,93,82
3558,93,30
3557,93,68
3556,93,62
3555,93,22
3554,93,77
3553,94,13
3552,94,36
3551,93,77
3550,93,66
3549,93,47
3548,93,94
3547,94,12
3546,94,5
3545,94,8
3544,93,94
3543,94,10
3542,93,37
3541,93,24
3540,93,44
3539,93,53
3538,93,70
3537,93,53
3536,94,8
3535,93,49
3534,93,18
3533,93,45
3532,93,44
3531,93,57
3530,93,75
3529,93,90
3528,93,83
3527,93,98
3526,94,4
3525,93,93
3524,94,4
3523,94,38
3522,94,11
3521,93,62
3520,93,64
3519,93,65
3518,93,56
3517,93,42
3516,93,69
3515,93,43
3514,93,45
3513,93,54
3512,93,55
3511,93,75
3510,93,90
3509,93,94
3508,93,83
3507,93,38
3506,93,26
3505,93,92
3504,94,83
3503,94,26
3502,93,97
3501,93,63
3500,93,87
3499,93,39
3498,93,42
3497,93,71
3496,93,96
3495,93,77
3494,93,71
3493,93,40
3492,93,78
3491,93,45
3490,93,67
3489,93,62
3488,93,93
3487,94,8
3486,93,37
3485,93,22
3484,93,61
3483,93,73
3482,94,12
3481,93,83
3480,94,4
3479,93,42
3478,93,64
3477,93,78
3476,93,99
3475,93,61
3474,93,61
3473,93,95
3472,93,61
3471,93,59
3470,93,60
3469,93,52
3468,93,72
3467,93,85
3466,93,63
3465,93,78
3464,93,54
3463,93,74
3462,93,50
3461,93,57
3460,93,56
3459,93,87
3458,93,78
3457,93,77
3456,93,80
3455,93,79
3454,93,80
3453,93,59
3452,93,64
3451,93,86
3450,93,83
3449,93,65
3448,94,8
3447,94,47
3446,94,10
3445,93,79
3444,93,94
3443,93,74
3442,94,13
3441,93,93
3440,93,64
3439,93,59
3438,93,68
3437,93,57
3436,93,74
3435,94,9
3434,93,96
3433,94,13
3432,93,84
3431,93,56
3430,93,67
3429,93,84
3428,93,72
3427,93,92
3426,93,89
3425,93,61
3424,93,58
3423,93,72
3422,94,29
3421,93,87
3420,93,60
3419,94,34
3418,93,77
3417,93,66
3416,94,4
3415,93,88
3414,93,68
3413,93,68
3412,93,88
3411,93,72
3410,93,88
3409,93,94
3408,93,92
3407,93,97
3406,94,2
3405,94,26
3404,93,65
3403,94,17
3402,93,91
3401,93,85
3400,93,85
3399,93,89
3398,93,99
3397,94,8
3396,94,18
3395,93,98
3394,93,88
3393,94,3
3392,94,13
3391,93,91
3390,93,82
3389,94,1
3388,93,75
3387,93,89
3386,93,71
3385,93,77
3384,93,94
3383,94,2
3382,93,81
3381,94,3
3380,93,77
3379,93,61
3378,94,1
3377,94,3
3376,93,75
3375,93,84
3374,94,4
3373,94,6
3372,93,97
3371,94,9
3370,93,91
3369,94,6
3368,93,93
3367,94,0
3366,94,19
3365,94,21
3364,94,54
3363,94,16
3362,94,11
3361,93,99
3360,94,24
3359,93,92
3358,94,9
3357,94,6
3356,94,29
3355,94,33
3354,94,45
3353,94,13
3352,94,17
3351,94,0
3350,94,30
3349,93,77
3348,93,89
3347,94,15
3346,94,16
3345,93,98
3344,94,13
3343,93,96
3342,93,87
3341,94,0
3340,93,93
3339,93,97
3338,93,94
3337,94,15
3336,94,31
3335,94,14
3334,94,50
3333,93,90
3332,94,28
3331,94,19
3330,94,18
3329,94,30
3328,94,41
3327,94,34
3326,94,15
3325,94,21
3324,94,28
3323,94,14
3322,94,18
3321,93,94
3320,94,8
3319,94,26
3318,94,18
3317,94,25
3316,94,32
3315,94,33
3314,94,7
3313,94,46
3312,94,55
3311,94,30
3310,94,25
3309,94,53
3308,93,98
3307,94,28
3306,94,52
3305,94,37
3304,94,44
3303,94,35
3302,94,53
3301,94,44
3300,94,18
3299,94,22
3298,94,37
3297,94,56
3296,94,53
3295,94,45
3294,94,65
3293,94,33
3292,94,27
3291,94,42
3290,94,63
3289,94,44
3288,94,38
3287,94,18
3286,94,55
3285,94,33
3284,94,29
3283,94,44
3282,94,47
3281,94,32
3280,94,67
3279,94,50
3278,94,43
3277,94,27
3276,94,61
3275,94,25
3274,94,85
3273,94,60
3272,94,41
3271,94,44
3270,94,2
3269,94,39
3268,94,44
3267,94,31
3266,94,34
3265,94,51
3264,94,76
3263,94,71
3262,94,44
3261,94,46
3260,94,42
3259,94,52
3258,94,53
3257,94,63
3256,94,52
3255,94,76
3254,94,45
3253,94,32
3252,94,65
3251,94,65
3250,94,54
3249,94,83
3248,94,47
3247,94,34
3246,94,63
3245,94,78
3244,94,73
3243,94,69
3242,94,48
3241,94,60
3240,94,52
3239,94,43
3238,94,34
3237,94,53
3236,94,34
3235,94,65
3234,94,60
3233,94,60
3232,94,76
3231,94,45
3230,94,57
3229,94,53
3228,94,59
3227,94,63
3226,94,61
3225,94,74
3224,94,60
3223,94,61
3222,94,99
3221,94,56
3220,94,64
3219,94,77
3218,94,67
3217,94,48
3216,94,68
3215,94,53
3214,94,92
3213,94,71
3212,94,77
3211,94,90
3210,94,78
3209,94,59
3208,94,49
3207,94,33
3206,94,58
3205,95,2
3204,94,87
3203,94,66
3202,94,63
3201,94,87
3200,94,94
3199,94,79
3198,94,75
3197,94,57
3196,94,84
3195,94,53
3194,94,76
3193,94,59
3192,94,55
3191,94,66
3190,94,42
3189,94,87
3188,94,68
3187,94,80
3186,94,80
3185,94,91
3184,94,62
3183,94,64
3182,94,47
3181,94,75
3180,94,49
3179,94,59
3178,94,63
3177,94,69
3176,94,66
3175,94,85
3174,94,43
3173,94,59
3172,94,78
3171,94,46
3170,94,71
3169,94,53
3168,94,51
3167,94,76
3166,94,71
3165,94,65
3164,94,72
3163,95,2
3162,94,75
3161,94,70
3160,94,77
3159,94,69
3158,94,71
3157,94,82
3156,94,68
3155,94,34
3154,94,62
3153,94,58
3152,94,55
3151,94,50
3150,94,72
3149,94,66
3148,94,45
3147,94,61
3146,94,78
3145,94,69
3144,94,75
3143,94,43
3142,94,69
3141,94,52
3140,94,62
3139,94,69
3138,94,39
3137,94,55
3136,94,85
3135,94,90
3134,94,49
3133,95,4
3132,94,74
3131,94,94
3130,94,58
3129,94,48
3128,94,53
3127,94,73
3126,94,79
3125,94,69
3124,94,52
3123,94,95
3122,95,0
3121,94,60
3120,94,53
3119,94,98
3118,94,78
3117,94,51
3116,94,99
3115,94,84
3114,94,72
3113,94,66
3112,94,73
3111,94,74
3110,94,71
3109,94,51
3108,94,60
3107,94,50
3106,94,47
3105,94,51
3104,94,56
3103,94,75
3102,94,88
3101,94,75
3100,94,83
3099,94,91
3098,94,65
3097,94,78
3096,94,92
3095,94,96
3094,94,55
3093,94,78
3092,94,60
3091,94,67
3090,94,54
3089,94,51
3088,94,80
3087,94,47
3086,94,57
3085,94,67
3084,94,70
3083,94,68
3082,94,91
3081,94,52
3080,94,99
3079,94,90
3078,94,84
3077,94,52
3076,94,57
3075,94,37
3074,94,94
3073,94,74
3072,94,55
3071,94,83
3070,94,71
3069,94,65
3068,94,57
3067,94,66
3066,94,73
3065,94,77
3064,94,94
3063,94,71
3062,94,86
3061,94,72
3060,94,69
3059,94,94
3058,94,57
3057,94,95
3056,94,78
3055,94,83
3054,94,62
3053,94,81
3052,94,63
3051,94,68
3050,94,71
3049,94,93
3048,94,88
3047,94,44
3046,94,70
3045,94,81
3044,94,70
3043,94,65
3042,94,57
3041,94,78
3040,94,65
3039,94,81
3038,94,74
3037,94,81
3036,94,81
3035,94,82
3034,94,61
3033,94,77
3032,94,90
3031,94,83
3030,94,99
3029,94,74
3028,94,72
3027,94,87
3026,94,75
3025,94,88
3024,94,83
3023,94,75
3022,94,70
3021,94,70
3020,94,65
3019,94,87
3018,94,79
3017,94,93
3016,94,77
3015,94,82
3014,94,84
3013,94,77
3012,94,86
3011,94,67
3010,94,68
3009,94,88
3008,94,66
3007,94,77
3006,94,92
3005,94,82
3004,94,75
3003,94,72
3002,94,86
3001,94,86
3000,94,60
2999,94,91
2998,94,78
2997,94,78
2996,94,91
2995,94,90
2994,94,80
2993,94,64
2992,94,71
2991,95,7
2990,94,79
2989,94,82
2988,94,87
2987,94,87
2986,94,90
2985,95,13
2984,94,86
2983,94,69
2982,94,69
2981,94,93
2980,94,88
2979,94,77
2978,94,93
2977,94,79
2976,94,86
2975,94,81
2974,95,2
2973,94,99
2972,94,66
2971,94,99
2970,94,88
2969,94,91
2968,94,79
2967,94,73
2966,94,75
2965,94,89
2964,94,82
2963,94,82
2962,94,87
2961,94,85
2960,95,11
2959,94,84
2958,94,75
2957,94,84
2956,94,95
2955,94,90
2954,94,84
2953,94,79
2952,94,89
2951,94,87
2950,94,74
2949,94,99
2948,94,77
2947,95,2
2946,94,84
2945,94,79
2944,94,97
2943,94,90
2942,94,90
2941,94,84
2940,94,97
2939,94,96
2938,94,71
2937,95,13
2936,94,95
2935,94,88
2934,95,13
2933,94,97
2932,94,83
2931,94,77
2930,94,85
2929,94,69
2928,94,80
2927,95,15
2926,94,96
2925,94,98
2924,94,97
2923,94,96
2922,94,96
2921,94,84
2920,95,4
2919,94,91
2918,94,94
2917,95,6
2916,94,86
2915,94,70
2914,94,92
2913,94,87
2912,94,89
2911,95,4
2910,95,1
2909,95,9
2908,95,2
2907,94,95
2906,94,92
2905,95,10
2904,94,89
2903,94,83
2902,95,3
2901,95,5
2900,95,14
2899,94,96
2898,94,95
2897,94,91
2896,95,0
2895,95,6
2894,95,11
2893,94,90
2892,95,7
2891,95,24
2890,95,9
2889,94,89
2888,95,1
2887,95,11
2886,95,16
2885,95,14
2884,95,11
2883,94,93
2882,95,26
2881,95,4
2880,95,1
2879,95,15
2878,95,8
2877,95,10
2876,95,26
2875,95,12
2874,95,9
2873,95,2
2872,95,20
2871,94,88
2870,95,15
2869,95,15
2868,94,99
2867,94,91
2866,95,31
2865,95,3
2864,95,25
2863,95,22
2862,95,17
2861,94,95
2860,95,7
2859,95,14
2858,95,36
2857,95,5
2856,95,26
2855,95,10
2854,95,19
2853,95,28
2852,95,41
2851,95,7
2850,95,13
2849,95,12
2848,95,18
2847,95,8
2846,95,19
2845,94,93
2844,95,34
2843,95,24
2842,95,8
2841,95,13
2840,95,22
2839,95,27
2838,95,16
2837,95,10
2836,95,28
2835,95,21
2834,95,29
2833,95,38
2832,95,30
2831,95,32
2830,95,30
2829,95,22
2828,95,19
2827,95,27
2826,95,37
2825,95,30
2824,95,20
2823,95,18
2822,95,26
2821,95,25
2820,95,34
2819,95,28
2818,95,32
2817,95,40
2816,95,22
2815,95,22
2814,95,32
2813,95,29
2812,95,37
2811,95,31
2810,95,19
2809,95,41
2808,95,24
2807,95,22
2806,95,39
2805,95,42
2804,95,61
2803,95,18
2802,95,38
2801,95,34
2800,95,39
2799,95,35
2798,95,12
2797,95,38
2796,95,45
2795,95,32
2794,95,26
2793,95,33
2792,95,20
2791,95,31
2790,95,33
2789,95,18
2788,95,31
2787,95,47
2786,95,19
2785,95,49
2784,95,50
2783,95,23
2782,95,38
2781,95,38
2780,95,39
2779,95,30
2778,95,40
2777,95,27
2776,95,42
2775,95,41
2774,95,32
2773,95,46
2772,95,37
2771,95,38
2770,95,45
2769,95,35
2768,95,42
2767,95,49
2766,95,40
2765,95,36
2764,95,41
2763,95,21
2762,95,43
2761,95,40
2760,95,52
2759,95,36
2758,95,51
2757,95,46
2756,95,56
2755,95,55
2754,95,26
2753,95,46
2752,95,46
2751,95,29
2750,95,53
2749,95,45
2748,95,20
2747,95,54
2746,95,56
2745,95,55
2744,95,53
2743,95,51
2742,95,66
2741,95,45
2740,95,47
2739,95,54
2738,95,57
2737,95,40
2736,95,44
2735,95,51
2734,95,43
2733,95,38
2732,95,34
2731,95,47
2730,95,50
2729,95,38
2728,95,38
2727,95,44
2726,95,50
2725,95,49
2724,95,53
2723,95,45
2722,95,40
2721,95,37
2720,95,58
2719,95,46
2718,95,49
2717,95,38
2716,95,53
2715,95,38
2714,95,41
2713,95,77
2712,95,54
2711,95,54
2710,95,48
2709,95,63
2708,95,56
2707,95,52
2706,95,52
2705,95,54
2704,95,54
2703,95,41
2702,95,61
2701,95,45
2700,95,47
2699,95,60
2698,95,63
2697,95,35
2696,95,63
2695,95,49
2694,95,32
2693,95,66
2692,95,60
2691,95,65
2690,95,60
2689,95,54
2688,95,53
2687,95,31
2686,95,42
2685,95,52
2684,95,61
2683,95,50
2682,95,52
2681,95,46
2680,95,53
2679,95,63
2678,95,65
2677,95,57
2676,95,43
2675,95,43
2674,95,59
2673,95,50
2672,95,48
2671,95,29
2670,95,51
2669,95,64
2668,95,50
2667,95,37
2666,95,50
2665,95,53
2664,95,64
2663,95,65
2662,95,60
2661,95,42
2660,95,53
2659,95,40
2658,95,59
2657,95,41
2656,95,36
2655,95,47
2654,95,44
2653,95,25
2652,95,47
2651,95,55
2650,95,57
2649,95,37
2648,95,39
2647,95,40
2646,95,41
2645,95,34
2644,95,54
2643,95,33
2642,95,57
2641,95,49
2640,95,58
2639,95,33
2638,95,37
2637,95,59
2636,95,52
2635,95,51
2634,95,43
2633,95,31
2632,95,29
2631,95,61
2630,95,60
2629,95,49
2628,95,28
2627,95,47
2626,95,33
2625,95,30
2624,95,50
2623,95,44
2622,95,22
2621,95,43
2620,95,35
2619,95,47
2618,95,57
2617,95,50
2616,95,36
2615,95,54
2614,95,64
2613,95,41
2612,95,16
2611,95,38
2610,95,37
2609,95,31
2608,95,50
2607,95,51
2606,95,67
2605,95,60
2604,95,39
2603,95,53
2602,95,29
2601,95,32
2600,95,33
2599,95,49
2598,95,31
2597,95,39
2596,95,49
2595,95,23
2594,95,59
2593,95,53
2592,95,47
2591,95,29
2590,95,40
2589,95,62
2588,95,46
2587,95,39
2586,95,33
2585,95,54
2584,95,47
2583,95,56
2582,95,39
2581,95,38
2580,95,62
2579,95,52
2578,95,27
2577,95,57
2576,95,48
2575,95,27
2574,95,48
2573,95,65
2572,95,47
2571,95,72
2570,95,50
2569,95,45
2568,95,65
2567,95,51
2566,95,52
2565,95,48
2564,95,31
2563,95,62
2562,95,57
2561,95,52
2560,95,48
2559,95,51
2558,95,63
2557,95,51
2556,95,60
2555,95,48
2554,95,41
2553,95,70
2552,95,51
2551,95,36
2550,95,49
2549,95,47
2548,95,77
2547,95,46
2546,95,54
2545,95,48
2544,95,29
2543,95,29
2542,95,61
2541,95,50
2540,95,51
2539,95,49
2538,95,49
2537,95,30
2536,95,55
2535,95,43
2534,95,80
2533,95,21
2532,95,39
2531,95,47
2530,95,68
2529,95,47
2528,95,53
2527,95,66
2526,95,38
2525,95,66
2524,95,23
2523,95,46
2522,95,79
2521,95,47
2520,95,60
2519,95,52
2518,95,38
2517,95,46
2516,95,16
2515,95,54
2514,95,63
2513,95,68
2512,95,69
2511,95,71
2510,95,80
2509,95,47
2508,95,46
2507,95,61
2506,95,62
2505,95,59
2504,95,50
2503,95,51
2502,95,17
2501,95,42
2500,95,63
2499,95,67
2498,95,77
2497,95,51
2496,95,77
2495,95,45
2494,95,38
2493,95,58
2492,95,38
2491,95,57
2490,95,68
2489,95,49
2488,95,55
2487,95,73
2486,95,64
2485,95,56
2484,95,42
2483,95,47
2482,95,66
2481,95,53
2480,95,43
2479,95,81
2478,95,55
2477,95,82
2476,95,31
2475,95,72
2474,95,86
2473,95,67
2472,95,42
2471,95,67
2470,95,68
2469,95,43
2468,95,41
2467,95,56
2466,95,88
2465,95,49
2464,95,57
2463,95,75
2462,95,61
2461,95,59
2460,95,74
2459,95,76
2458,95,51
2457,95,60
2456,95,62
2455,95,96
2454,95,75
2453,95,80
2452,95,40
2451,95,57
2450,95,72
2449,95,82
2448,95,53
2447,95,59
2446,95,70
2445,95,45
2444,95,52
2443,95,52
2442,95,82
2441,95,64
2440,95,62
2439,95,89
2438,95,73
2437,95,62
2436,95,64
2435,95,59
2434,95,69
2433,95,67
2432,95,74
2431,95,91
2430,95,58
2429,95,93
2428,95,54
2427,95,80
2426,95,79
2425,95,62
2424,95,76
2423,95,71
2422,95,97
2421,95,92
2420,95,75
2419,95,68
2418,95,75
2417,95,84
2416,95,69
2415,95,85
2414,96,5
2413,95,90
2412,95,75
2411,95,86
2410,95,80
2409,95,86
2408,95,82
2407,95,58
2406,95,86
2405,96,5
2404,96,2
2403,95,93
2402,95,63
2401,95,78
2400,95,52
2399,96,7
2398,95,84
2397,95,93
2396,95,96
2395,96,4
2394,95,91
2393,95,60
2392,95,77
2391,95,79
2390,96,24
2389,95,89
2388,95,95
2387,95,80
2386,95,90
2385,96,14
2384,96,36
2383,96,16
2382,96,59
2381,96,99
2380,96,72
2379,96,79
2378,96,80
2377,97,11
2376,97,13
2375,97,70
2374,97,90
2373,97,44
2372,96,95
2371,97,58
2370,97,42
2369,98,16
2368,97,70
2367,98,1
2366,97,81
2365,97,73
2364,97,72
2363,98,16
2362,97,64
2361,97,80
2360,99,41
2359,97,24
2358,98,44
2357,98,8
2356,96,61
2355,97,62
2354,97,86
2353,97,21
2352,97,6
2351,97,95
2350,97,0
2349,97,33
2348,96,45
2347,97,40
2346,97,48
2345,97,13
2344,97,70
2343,97,37
2342,97,15
2341,95,85
2340,97,46
2339,97,66
2338,96,97
2337,97,54
2336,97,5
2335,96,84
2334,97,6
2333,97,92
2332,98,47
2331,97,19
2330,97,81
2329,96,85
2328,97,11
2327,96,77
2326,97,99
2325,97,38
2324,97,54
2323,97,24
2322,97,23
2321,97,41
2320,97,35
2319,97,94
2318,97,2
2317,97,63
2316,97,49
2315,97,78
2314,97,7
2313,97,57
2312,97,2
2311,97,20
2310,96,88
2309,96,83
2308,96,84
2307,97,24
2306,97,4
2305,97,18
2304,96,97
2303,96,67
2302,97,11
2301,96,78
2300,96,62
2299,96,42
2298,96,23
2297,96,30
2296,96,10
2295,96,38
2294,96,69
2293,96,5
2292,96,25
2291,96,43
2290,96,23
2289,96,14
2288,96,42
2287,96,50
2286,96,14
2285,95,85
2284,95,77
2283,96,15
2282,95,95
2281,95,90
2280,96,12
2279,96,9
2278,96,60
2277,95,91
2276,95,74
2275,96,26
2274,96,22
2273,95,73
2272,95,98
2271,96,25
2270,96,22
2269,96,29
2268,96,4
2267,95,96
2266,96,0
2265,96,22
2264,96,5
2263,96,32
2262,96,43
2261,96,44
2260,96,2
2259,95,99
2258,96,23
2257,96,43
2256,95,67
2255,96,22
2254,96,33
2253,95,99
2252,96,12
2251,96,34
2250,96,34
2249,95,85
2248,96,17
2247,96,16
2246,96,12
2245,96,27
2244,96,5
2243,96,19
2242,96,25
2241,96,30
2240,96,33
2239,96,10
2238,96,2
2237,96,6
2236,96,13
2235,96,12
2234,96,4
2233,95,92
2232,95,93
2231,96,56
2230,96,64
2229,95,70
2228,96,37
2227,96,64
2226,96,53
2225,96,2
2224,96,0
2223,96,20
2222,95,93
2221,96,34
2220,95,91
2219,96,72
2218,96,55
2217,96,1
2216,96,39
2215,96,61
2214,97,0
2213,96,31
2212,96,4
2211,96,20
2210,96,34
2209,96,76
2208,96,39
2207,96,32
2206,95,64
2205,96,70
2204,95,94
2203,95,73
2202,95,63
2201,96,5
2200,96,48
2199,96,31
2198,95,95
2197,96,61
2196,95,93
2195,95,69
2194,96,3
2193,96,33
2192,96,59
2191,96,43
2190,95,87
2189,95,93
2188,95,92
2187,96,32
2186,96,67
2185,96,66
2184,96,27
2183,97,2
2182,96,6
2181,95,75
2180,96,24
2179,96,89
2178,96,3
2177,96,32
2176,96,48
2175,96,24
2174,96,4
2173,96,42
2172,95,92
2171,96,70
2170,96,35
2169,95,67
2168,96,20
2167,96,16
2166,95,46
2165,96,1
2164,95,42
2163,95,86
2162,96,11
2161,96,11
2160,96,31
2159,96,50
2158,97,44
2157,96,53
2156,97,5
2155,96,24
2154,96,44
2153,96,53
2152,96,40
2151,96,55
2150,95,96
2149,96,62
2148,97,32
2147,97,10
2146,96,13
2145,96,57
2144,96,49
2143,97,5
2142,96,84
2141,96,78
2140,96,75
2139,96,69
2138,96,26
2137,96,14
2136,96,57
2135,96,76
2134,96,44
2133,96,93
2132,96,49
2131,96,91
2130,96,2
2129,96,48
2128,96,15
2127,96,55
2126,96,71
2125,96,82
2124,96,79
2123,96,41
2122,96,95
2121,96,57
2120,96,53
2119,96,64
2118,96,54
2117,96,55
2116,96,78
2115,96,61
2114,96,51
2113,96,57
2112,96,63
2111,96,28
2110,96,40
2109,96,76
2108,96,49
2107,96,45
2106,96,63
2105,96,85
2104,96,77
2103,96,57
2102,96,23
2101,96,34
2100,96,58
2099,96,82
2098,96,71
2097,96,40
2096,96,92
2095,96,48
2094,96,49
2093,96,17
2092,96,48
2091,96,27
2090,96,70
2089,96,50
2088,96,70
2087,96,32
2086,96,55
2085,96,52
2084,96,67
2083,96,39
2082,96,52
2081,96,18
2080,96,53
2079,96,79
2078,96,49
2077,96,8
2076,96,2
2075,96,46
2074,96,58
2073,96,55
2072,96,72
2071,96,50
2070,96,38
2069,96,44
2068,96,55
2067,96,18
2066,96,7
2065,96,5
2064,96,39
2063,96,24
2062,96,68
2061,96,39
2060,97,0
2059,96,44
2058,96,26
2057,96,39
2056,96,66
2055,96,48
2054,96,71
2053,96,51
2052,96,22
2051,96,4
2050,96,32
2049,96,38
2048,96,81
2047,96,85
2046,97,16
2045,96,95
2044,95,90
2043,97,1
2042,96,38
2041,96,74
2040,96,83
2039,95,92
2038,96,7
2037,96,79
2036,96,50
2035,97,36
2034,95,96
2033,96,67
2032,96,85
2031,96,57
2030,96,67
2029,96,67
2028,96,85
2027,95,89
2026,96,6
2025,95,96
2024,96,36
2023,96,22
2022,96,35
2021,96,10
2020,96,92
2019,95,81
2018,96,80
2017,96,52
2016,96,59
2015,95,99
2014,96,10
2013,96,34
2012,97,26
2011,96,81
2010,95,60
2009,96,56
2008,96,46
2007,95,91
2006,97,14
2005,96,37
2004,96,81
2003,96,83
2002,96,61
2001,96,77
2000,96,76
1999,96,69
1998,96,54
1997,96,99
1996,96,42
1995,96,34
1994,97,17
1993,96,38
1992,96,26
1991,96,24
1990,96,48
1989,96,36
1988,96,78
1987,96,46
1986,96,49
1985,96,14
1984,96,77
1983,96,71
1982,96,48
1981,96,36
1980,96,28
1979,95,96
1978,96,12
1977,96,49
1976,97,22
1975,97,0
1974,96,75
1973,97,22
1972,96,72
1971,96,94
1970,96,86
1969,97,13
1968,96,16
1967,97,2
1966,97,10
1965,97,15
1964,97,10
1963,96,44
1962,96,97
1961,96,32
1960,96,85
1959,96,83
1958,96,41
1957,96,99
1956,96,80
1955,96,41
1954,96,96
1953,96,61
1952,96,44
1951,97,1
1950,97,36
1949,96,74
1948,97,8
1947,96,61
1946,96,59
1945,97,8
1944,96,86
1943,95,89
1942,97,51
1941,97,37
1940,97,29
1939,96,95
1938,97,12
1937,96,61
1936,96,70
1935,96,70
1934,96,61
1933,96,82
1932,96,90
1931,97,33
1930,96,90
1929,97,19
1928,96,76
1927,96,64
1926,97,4
1925,96,95
1924,97,34
1923,97,15
1922,97,39
1921,97,21
1920,96,41
1919,96,53
1918,97,10
1917,97,32
1916,97,6
1915,96,70
1914,96,85
1913,97,9
1912,97,13
1911,97,17
1910,96,87
1909,97,16
1908,97,10
1907,96,96
1906,97,4
1905,96,72
1904,96,97
1903,97,13
1902,96,85
1901,97,22
1900,97,4
1899,97,21
1898,97,5
1897,97,29
1896,97,4
1895,97,15
1894,97,27
1893,97,26
1892,96,92
1891,96,91
1890,96,90
1889,97,70
1888,97,50
1887,97,3
1886,96,62
1885,97,23
1884,97,11
1883,96,89
1882,97,22
1881,96,95
1880,96,92
1879,97,20
1878,97,0
1877,97,18
1876,97,13
1875,97,2
1874,96,81
1873,97,37
1872,97,26
1871,97,15
1870,97,9
1869,96,97
1868,97,49
1867,97,10
1866,97,24
1865,97,2
1864,96,93
1863,97,17
1862,97,18
1861,97,35
1860,97,7
1859,97,11
1858,97,41
1857,97,26
1856,97,29
1855,97,23
1854,97,7
1853,97,41
1852,97,31
1851,97,8
1850,96,93
1849,97,11
1848,96,84
1847,97,32
1846,97,10
1845,97,7
1844,97,15
1843,97,75
1842,97,29
1841,97,40
1840,96,93
1839,97,26
1838,97,21
1837,97,30
1836,97,30
1835,97,32
1834,97,38
1833,97,25
1832,97,10
1831,97,14
1830,97,40
1829,98,1
1828,97,53
1827,97,21
1826,97,3
1825,97,93
1824,97,55
1823,97,20
1822,97,57
1821,97,29
1820,97,24
1819,97,22
1818,97,16
1817,97,21
1816,97,20
1815,97,33
1814,97,26
1813,97,33
1812,97,17
1811,97,25
1810,97,67
1809,97,39
1808,97,19
1807,97,45
1806,97,25
1805,97,27
1804,97,37
1803,97,17
1802,97,30
1801,97,88
1800,97,68
1799,97,44
1798,97,40
1797,97,29
1796,97,36
1795,97,36
1794,97,34
1793,96,88
1792,97,33
1791,97,46
1790,97,42
1789,97,36
1788,97,9
1787,97,31
1786,97,29
1785,97,58
1784,97,38
1783,97,48
1782,97,22
1781,97,34
1780,97,53
1779,97,26
1778,97,30
1777,97,30
1776,97,35
1775,97,55
1774,97,62
1773,97,45
1772,97,78
1771,97,70
1770,97,69
1769,97,33
1768,97,24
1767,97,50
1766,97,36
1765,97,19
1764,97,22
1763,97,36
1762,97,19
1761,97,43
1760,97,46
1759,97,16
1758,97,19
1757,97,40
1756,97,59
1755,97,65
1754,97,37
1753,97,32
1752,97,11
1751,98,0
1750,97,74
1749,97,81
1748,97,83
1747,97,74
1746,97,76
1745,97,35
1744,97,46
1743,98,19
1742,97,61
1741,97,51
1740,97,35
1739,97,92
1738,97,65
1737,97,61
1736,97,36
1735,97,24
1734,96,28
1733,97,70
1732,97,88
1731,97,54
1730,97,11
1729,97,95
1728,97,70
1727,97,34
1726,97,29
1725,97,46
1724,97,42
1723,97,53
1722,97,56
1721,97,62
1720,97,34
1719,97,66
1718,97,90
1717,97,84
1716,97,88
1715,97,49
1714,97,75
1713,97,74
1712,97,51
1711,97,46
1710,97,58
1709,97,60
1708,97,46
1707,97,69
1706,97,92
1705,97,87
1704,97,94
1703,97,59
1702,97,52
1701,97,3
1700,89,91
1699,98,29
1698,98,23
1697,97,49
1696,96,63
1695,97,43
1694,97,92
1693,97,51
1692,97,69
1691,97,40
1690,97,68
1689,97,56
1688,97,59
1687,97,64
1686,97,84
1685,95,65
1684,97,34
1683,98,32
1682,97,92
1681,97,66
1680,97,71
1679,97,63
1678,97,63
1677,97,63
1676,97,80
1675,97,23
1674,97,97
1673,97,64
1672,97,68
1671,97,63
1670,98,14
1669,97,64
1668,98,27
1667,97,78
1666,97,65
1665,97,61
1664,97,56
1663,97,76
1662,97,71
1661,97,77
1660,97,60
1659,97,57
1658,97,56
1657,97,79
1656,97,64
1655,97,66
1654,97,78
1653,59,33
1652,98,4
1651,98,32
1650,97,75
1649,97,79
1648,97,61
1647,98,36
1646,98,41
1645,97,88
1644,97,70
1643,97,84
1642,97,72
1641,97,42
1640,97,76
1639,97,70
1638,97,82
1637,97,95
1636,98,53
1635,98,22
1634,97,99
1633,97,93
1632,97,67
1631,97,61
1630,97,82
1629,97,82
1628,97,95
1627,97,87
1626,97,47
1625,97,71
1624,98,9
1623,97,98
1622,97,95
1621,97,71
1620,97,69
1619,97,92
1618,97,80
1617,98,26
1616,97,38
1615,98,16
1614,97,88
1613,97,79
1612,97,85
1611,97,71
1610,97,70
1609,97,85
1608,97,79
1607,97,78
1606,97,89
1605,97,66
1604,97,71
1603,97,78
1602,97,90
1601,97,70
1600,97,78
1599,97,87
1598,97,81
1597,97,80
1596,97,72
1595,97,74
1594,97,96
1593,97,74
1592,97,67
1591,97,66
1590,97,63
1589,97,76
1588,97,79
1587,97,67
1586,97,80
1585,97,72
1584,97,65
1583,97,74
1582,97,78
1581,97,84
1580,97,60
1579,97,73
1578,97,89
1577,98,26
1576,98,29
1575,98,13
1574,97,98
1573,97,80
1572,97,87
1571,97,86
1570,97,96
1569,98,46
1568,98,5
1567,97,91
1566,97,55
1565,97,87
1564,98,3
1563,97,77
1562,97,94
1561,98,16
1560,90,20
1559,100,18
1558,99,39
1557,98,33
1556,98,18
1555,98,3
1554,97,93
1553,98,4
1552,97,98
1551,97,79
1550,97,14
1549,97,92
1548,97,96
1547,97,69
1546,97,47
1545,97,79
1544,98,28
1543,98,25
1542,98,65
1541,98,59
1540,98,78
1539,98,33
1538,98,59
1537,98,18
1536,97,81
1535,97,94
1534,97,76
1533,98,87
1532,98,34
1531,98,14
1530,97,77
1529,97,59
1528,97,88
1527,98,14
1526,98,9
1525,97,83
1524,98,15
1523,98,10
1522,97,89
1521,97,79
1520,98,85
1519,98,9
1518,98,3
1517,98,55
1516,98,27
1515,98,11
1514,98,0
1513,97,74
1512,97,83
1511,97,83
1510,98,6
1509,98,11
1508,97,85
1507,100,71
1506,100,58
1505,98,39
1504,98,17
1503,97,96
1502,97,68
1501,97,78
1500,98,3
1499,97,85
1498,98,10
1497,98,10
1496,98,8
1495,98,28
1494,97,88
1493,97,83
1492,97,85
1491,97,72
1490,97,78
1489,98,46
1488,98,36
1487,98,56
1486,98,2
1485,97,86
1484,97,79
1483,97,98
1482,97,61
1481,98,6
1480,98,5
1479,98,3
1478,97,81
1477,97,70
1476,98,43
1475,98,18
1474,97,91
1473,98,0
1472,99,31
1471,98,69
1470,98,15
1469,97,88
1468,98,7
1467,98,3
1466,97,91
1465,97,81
1464,98,39
1463,98,8
1462,98,1
1461,97,90
1460,97,89
1459,97,88
1458,98,61
1457,98,23
1456,97,90
1455,98,28
1454,98,37
1453,98,12
1452,98,1
1451,98,7
1450,98,0
1449,97,94
1448,98,5
1447,98,26
1446,98,6
1445,97,91
1444,98,5
1443,97,94
1442,98,2
1441,98,3
1440,97,90
1439,98,11
1438,97,77
1437,97,61
1436,98,37
1435,98,35
1434,97,96
1433,98,10
1432,98,16
1431,97,98
1430,98,15
1429,98,22
1428,98,2
1427,98,1
1426,98,13
1425,97,97
1424,97,71
1423,98,45
1422,98,14
1421,98,11
1420,97,85
1419,98,44
1418,98,63
1417,98,56
1416,98,19
1415,98,28
1414,98,6
1413,98,20
1412,98,4
1411,98,30
1410,98,0
1409,98,11
1408,98,0
1407,98,18
1406,98,19
1405,98,19
1404,98,48
1403,98,1
1402,98,21
1401,98,18
1400,98,6
1399,98,55
1398,98,35
1397,98,21
1396,98,30
1395,98,36
1394,98,64
1393,98,36
1392,98,12
1391,98,2
1390,97,99
1389,98,22
1388,97,97
1387,98,25
1386,98,45
1385,98,27
1384,98,38
1383,98,15
1382,98,24
1381,98,34
1380,98,17
1379,98,16
1378,98,14
1377,98,26
1376,98,9
1375,98,37
1374,98,51
1373,98,54
1372,98,22
1371,98,31
1370,98,27
1369,98,11
1368,98,44
1367,98,41
1366,98,23
1365,98,30
1364,98,14
1363,98,36
1362,98,41
1361,98,56
1360,98,52
1359,98,27
1358,98,22
1357,98,44
1356,98,28
1355,98,17
1354,98,35
1353,98,27
1352,98,21
1351,98,36
1350,98,31
1349,98,23
1348,98,38
1347,98,24
1346,98,25
1345,98,33
1344,98,44
1343,98,33
1342,98,32
1341,98,20
1340,98,46
1339,98,59
1338,98,40
1337,98,50
1336,98,52
1335,98,57
1334,98,20
1333,98,31
1332,98,36
1331,98,28
1330,98,30
1329,98,44
1328,98,33
1327,98,37
1326,98,46
1325,98,49
1324,98,30
1323,98,27
1322,98,50
1321,98,31
1320,98,48
1319,98,32
1318,98,50
1317,98,48
1316,98,54
1315,98,39
1314,98,44
1313,98,25
1312,98,43
1311,98,55
1310,98,53
1309,98,33
1308,98,49
1307,98,55
1306,98,48
1305,98,39
1304,98,49
1303,98,48
1302,98,56
1301,98,39
1300,98,44
1299,98,53
1298,98,49
1297,98,52
1296,98,50
1295,98,49
1294,98,62
1293,98,40
1292,98,65
1291,98,72
1290,98,59
1289,98,50
1288,98,62
1287,98,39
1286,98,57
1285,98,59
1284,98,59
1283,98,61
1282,98,57
1281,98,60
1280,98,68
1279,98,69
1278,98,50
1277,98,57
1276,98,61
1275,98,63
1274,98,69
1273,98,60
1272,98,63
1271,98,55
1270,98,58
1269,98,57
1268,98,72
1267,98,72
1266,98,53
1265,98,66
1264,98,52
1263,98,70
1262,98,69
1261,98,68
1260,98,51
1259,98,79
1258,98,83
1257,98,63
1256,98,60
1255,98,79
1254,98,76
1253,98,72
1252,98,74
1251,98,76
1250,98,70
1249,98,64
1248,98,69
1247,98,69
1246,98,79
1245,98,70
1244,98,68
1243,98,64
1242,98,76
1241,98,86
1240,98,62
1239,98,67
1238,98,65
1237,98,94
1236,98,59
1235,98,65
1234,98,74
1233,98,93
1232,98,61
1231,98,83
1230,98,68
1229,98,70
1228,98,55
1227,98,72
1226,98,94
1225,98,65
1224,98,70
1223,98,67
1222,98,62
1221,99,0
1220,98,56
1219,98,70
1218,98,81
1217,98,78
1216,98,66
1215,98,68
1214,98,68
1213,98,72
1212,98,63
1211,98,61
1210,98,72
1209,98,67
1208,98,77
1207,98,85
1206,98,64
1205,98,43
1204,98,67
1203,98,54
1202,98,71
1201,98,85
1200,98,72
1199,98,80
1198,98,60
1197,98,68
1196,98,74
1195,98,86
1194,98,48
1193,98,65
1192,98,70
1191,98,58
1190,98,97
1189,98,74
1188,98,65
1187,98,56
1186,98,67
1185,98,60
1184,98,54
1183,98,56
1182,98,73
1181,98,80
1180,98,59
1179,98,70
1178,98,63
1177,98,84
1176,98,91
1175,98,91
1174,98,73
1173,98,79
1172,98,73
1171,98,81
1170,98,76
1169,98,63
1168,98,76
1167,98,76
1166,98,37
1165,98,70
1164,98,83
1163,98,69
1162,98,62
1161,99,13
1160,98,57
1159,98,81
1158,98,75
1157,98,71
1156,98,81
1155,98,65
1154,98,93
1153,98,91
1152,98,57
1151,98,82
1150,98,86
1149,98,95
1148,98,75
1147,98,51
1146,98,73
1145,98,35
1144,98,89
1143,99,0
1142,98,56
1141,98,70
1140,98,77
1139,98,64
1138,98,91
1137,98,72
1136,98,64
1135,98,78
1134,98,64
1133,98,59
1132,98,71
1131,98,74
1130,98,42
1129,98,61
1128,98,85
1127,98,80
1126,98,56
1125,98,33
1124,98,64
1123,98,66
1122,98,63
1121,98,46
1120,98,64
1119,98,96
1118,98,30
1117,98,74
1116,99,5
1115,98,87
1114,98,57
1113,98,36
1112,98,92
1111,98,70
1110,98,61
1109,98,65
1108,98,57
1107,98,42
1106,98,18
1105,98,59
1104,98,63
1103,98,49
1102,98,33
1101,98,75
1100,98,54
1099,98,45
1098,98,19
1097,98,41
1096,98,57
1095,97,93
1094,98,36
1093,98,35
1092,98,86
1091,99,17
1090,98,39
1089,98,56
1088,98,21
1087,98,38
1086,98,30
1085,97,77
1084,98,48
1083,98,10
1082,97,92
1081,98,13
1080,98,9
1079,98,20
1078,98,1
1077,97,94
1076,97,81
1075,97,74
1074,98,2
1073,97,88
1072,97,82
1071,97,69
1070,97,57
1069,98,0
1068,97,12
1067,97,82
1066,97,83
1065,97,22
1064,97,7
1063,97,33
1062,96,95
1061,96,55
1060,96,80
1059,96,49
1058,96,19
1057,96,60
1056,96,60
1055,96,38
1054,95,90
1053,96,0
1052,95,73
1051,95,72
1050,95,42
1049,95,26
1048,95,3
1047,95,3
1046,95,39
1045,94,44
1044,94,32
1043,94,34
1042,94,14
1041,94,17
1040,93,55
1039,93,44
1038,93,55
1037,93,5
1036,92,98
1035,93,13
1034,92,59
1033,92,18
1032,92,39
1031,92,15
1030,91,71
1029,91,44
1028,91,37
1027,90,74
1026,91,6
1025,91,8
1024,90,31
1023,90,73
1022,90,7
1021,89,86
1020,89,56
1019,89,66
1018,89,34
1017,89,14
1016,88,95
1015,89,11
1014,88,89
1013,88,58
1012,88,43
1011,88,27
1010,88,2
1009,88,16
1008,87,99
1007,87,66
1006,87,41
1005,87,39
1004,87,51
1003,87,21
1002,86,83
1001,86,92
1000,86,92
999,86,81
998,86,59
997,86,69
996,86,75
995,86,50
994,86,65
993,86,46
992,86,48
991,86,46
990,86,2
989,85,98
988,85,74
987,85,56
986,85,39
985,84,65
984,84,28
983,83,74
982,83,61
981,83,7
980,83,34
979,82,94
978,83,46
977,83,76
976,83,71
975,84,17
974,84,41
973,84,77
972,85,15
971,85,29
970,85,96
969,85,92
968,86,37
967,86,35
966,87,2
965,87,19
964,87,59
963,87,81
962,87,71
961,87,76
960,87,8
959,86,43
958,85,75
957,84,98
956,84,48
955,84,19
954,83,52
953,83,20
952,82,82
951,82,97
950,82,60
949,82,62
948,82,30
947,82,26
946,82,19
945,82,25
944,81,76
943,81,77
942,81,70
941,81,62
940,81,43
939,81,35
938,81,19
937,81,18
936,81,0
935,80,60
934,80,30
933,80,6
932,80,11
931,79,93
930,79,72
929,79,76
928,79,22
927,79,38
926,78,96
925,78,92
924,78,39
923,78,33
922,78,59
921,78,15
920,77,47
919,77,74
918,77,45
917,77,45
916,76,51
915,76,42
914,76,34
913,76,20
912,76,21
911,76,20
910,75,87
909,75,33
908,74,97
907,74,79
906,74,67
905,74,53
904,74,12
903,73,62
902,73,43
901,73,38
900,72,92
899,72,54
898,72,35
897,72,26
896,71,67
895,71,63
894,71,49
893,71,10
892,70,59
891,70,52
890,69,88
889,69,54
888,69,37
887,69,43
886,68,99
885,68,85
884,68,87
883,68,53
882,68,47
881,68,22
880,68,54
879,68,0
878,68,12
877,68,54
876,68,36
875,68,43
874,68,68
873,68,35
872,68,70
871,68,80
870,68,63
869,69,31
868,69,56
867,69,31
866,69,74
865,69,80
864,70,71
863,71,22
862,71,43
861,70,96
860,72,29
859,72,65
858,72,49
857,72,89
856,73,5
855,73,29
854,74,9
853,74,26
852,74,63
851,74,80
850,75,29
849,76,1
848,76,28
847,76,32
846,77,12
845,76,60
844,75,88
843,76,2
842,75,90
841,75,33
840,74,60
839,73,96
838,74,2
837,73,96
836,74,30
835,74,43
834,74,15
833,74,19
832,74,92
831,74,93
830,75,27
829,75,76
828,76,33
827,76,37
826,76,42
825,77,27
824,77,55
823,77,55
822,78,9
821,78,48
820,78,30
819,79,37
818,78,85
817,79,26
816,79,44
815,80,27
814,80,26
813,80,84
812,81,38
811,81,10
810,81,49
809,81,47
808,82,18
807,82,26
806,82,59
805,82,50
804,82,53
803,83,66
802,83,43
801,83,69
800,83,82
799,84,8
798,83,87
797,84,64
796,85,13
795,84,92
794,85,44
793,85,23
792,85,90
791,85,54
790,86,20
789,86,34
788,86,30
787,86,64
786,86,96
785,86,83
784,87,28
783,87,50
782,87,36
781,87,94
780,88,2
779,87,84
778,88,39
777,88,66
776,89,0
775,88,39
774,88,84
773,89,33
772,89,68
771,89,44
770,89,77
769,89,61
768,89,76
767,89,79
766,90,38
765,90,43
764,90,65
763,90,64
762,91,18
761,90,85
760,90,66
759,91,7
758,91,28
757,91,63
756,91,49
755,91,61
754,91,86
753,92,28
752,92,53
751,92,6
750,92,8
749,92,26
748,92,40
747,92,61
746,92,81
745,92,41
744,93,12
743,93,1
742,93,23
741,93,26
740,92,91
739,92,82
738,93,32
737,94,3
736,93,85
735,93,72
734,93,12
733,94,3
732,93,72
731,93,50
730,94,45
729,94,77
728,94,20
727,94,36
726,94,28
725,94,42
724,94,22
723,94,93
722,95,8
721,94,54
720,95,3
719,95,41
718,95,20
717,94,88
716,95,1
715,95,16
714,94,60
713,95,25
712,95,12
711,95,18
710,95,45
709,95,68
708,95,54
707,95,19
706,95,6
705,95,56
704,95,48
703,95,88
702,96,45
701,95,37
700,95,19
699,96,15
698,95,81
697,95,81
696,96,62
695,95,46
694,95,72
693,96,5
692,96,18
691,95,58
690,95,12
689,96,7
688,95,88
687,96,42
686,95,84
685,96,33
684,95,86
683,95,45
682,95,58
681,95,74
680,96,45
679,96,6
678,95,32
677,95,56
676,96,31
675,96,60
674,96,33
673,95,70
672,95,45
671,96,53
670,96,91
669,98,13
668,94,59
667,98,63
666,96,18
665,95,93
664,96,69
663,95,22
662,97,18
661,95,63
660,96,63
659,95,99
658,94,87
657,95,73
656,96,96
655,95,81
654,95,93
653,95,85
652,95,93
651,94,64
650,95,52
649,94,24
648,95,52
647,95,79
646,93,87
645,93,53
644,95,57
643,95,54
642,93,38
641,96,20
640,92,87
639,92,37
638,92,17
637,90,92
636,91,93
635,91,67
634,91,39
633,91,15
632,89,33
631,91,73
630,89,42
629,90,82
628,91,4
627,86,10
626,86,56
625,88,46
624,86,91
623,84,16
622,83,77
621,86,73
620,83,6
619,89,60
618,87,5
617,82,22
616,81,20
615,86,14
614,84,89
613,86,92
612,82,93
611,85,67
610,85,62
609,85,29
608,78,58
607,78,52
606,80,6
605,81,54
604,85,16
603,79,36
602,80,44
601,81,67
600,84,53
