Created as New Dataset;Sample 060 By Administrator Date donderdag, februari 26 2026,
cm-1,%T,comma
4000,92,69
3999,93,1
3998,92,69
3997,92,91
3996,93,9
3995,92,72
3994,93,38
3993,93,5
3992,92,95
3991,92,97
3990,93,0
3989,92,63
3988,92,73
3987,92,75
3986,92,74
3985,93,1
3984,92,88
3983,92,60
3982,93,2
3981,92,94
3980,92,71
3979,92,80
3978,92,87
3977,92,94
3976,93,13
3975,93,11
3974,92,92
3973,93,11
3972,93,25
3971,92,88
3970,92,91
3969,92,75
3968,92,89
3967,92,91
3966,93,37
3965,92,81
3964,93,2
3963,93,25
3962,92,76
3961,93,21
3960,92,90
3959,92,97
3958,93,14
3957,93,12
3956,93,27
3955,93,22
3954,93,5
3953,93,14
3952,93,13
3951,93,49
3950,93,40
3949,93,82
3948,93,16
3947,93,25
3946,93,12
3945,93,40
3944,93,46
3943,93,52
3942,93,91
3941,93,38
3940,93,4
3939,93,21
3938,92,97
3937,92,87
3936,93,18
3935,93,16
3934,93,50
3933,93,52
3932,93,89
3931,93,78
3930,93,85
3929,93,81
3928,93,41
3927,93,49
3926,93,73
3925,94,86
3924,94,8
3923,93,67
3922,93,43
3921,93,41
3920,94,8
3919,93,60
3918,93,55
3917,93,45
3916,93,88
3915,93,55
3914,92,94
3913,92,99
3912,93,22
3911,93,28
3910,93,15
3909,93,3
3908,93,51
3907,93,95
3906,94,52
3905,95,16
3904,95,43
3903,95,34
3902,94,70
3901,94,29
3900,94,95
3899,95,43
3898,94,47
3897,93,65
3896,93,61
3895,93,50
3894,93,62
3893,94,40
3892,95,2
3891,95,77
3890,94,51
3889,93,53
3888,93,56
3887,94,53
3886,94,42
3885,94,67
3884,94,70
3883,94,37
3882,94,59
3881,95,51
3880,94,93
3879,93,92
3878,93,52
3877,93,44
3876,94,17
3875,94,87
3874,94,49
3873,94,88
3872,94,72
3871,95,92
3870,97,45
3869,96,74
3868,94,33
3867,94,15
3866,95,21
3865,95,43
3864,95,46
3863,94,97
3862,94,44
3861,94,17
3860,93,91
3859,94,9
3858,94,63
3857,94,73
3856,95,83
3855,98,16
3854,88,16
3853,99,26
3852,99,1
3851,95,33
3850,94,59
3849,94,23
3848,93,68
3847,93,66
3846,93,71
3845,94,55
3844,94,79
3843,95,11
3842,95,17
3841,95,97
3840,96,67
3839,96,46
3838,99,73
3837,96,87
3836,95,85
3835,95,98
3834,94,48
3833,94,91
3832,95,16
3831,95,7
3830,94,37
3829,93,85
3828,94,53
3827,95,15
3826,94,80
3825,94,24
3824,94,55
3823,95,64
3822,98,7
3821,96,59
3820,96,93
3819,95,53
3818,95,25
3817,96,5
3816,97,58
3815,95,27
3814,94,30
3813,93,68
3812,93,90
3811,93,64
3810,93,47
3809,94,5
3808,95,62
3807,95,61
3806,95,29
3805,94,59
3804,94,57
3803,96,13
3802,98,90
3801,98,34
3800,95,46
3799,94,90
3798,94,92
3797,95,92
3796,95,15
3795,94,1
3794,93,90
3793,93,74
3792,93,62
3791,93,56
3790,93,80
3789,93,69
3788,93,80
3787,93,73
3786,94,6
3785,94,43
3784,94,38
3783,93,93
3782,94,8
3781,94,20
3780,95,2
3779,95,59
3778,94,57
3777,93,72
3776,93,66
3775,93,65
3774,94,3
3773,93,67
3772,94,1
3771,94,99
3770,95,0
3769,94,85
3768,94,1
3767,94,68
3766,95,21
3765,94,92
3764,94,18
3763,94,10
3762,94,10
3761,94,84
3760,95,79
3759,95,78
3758,95,10
3757,95,49
3756,95,36
3755,94,99
3754,95,40
3753,97,58
3752,98,21
3751,98,34
3750,98,51
3749,98,45
3748,96,38
3747,95,71
3746,96,87
3745,100,12
3744,96,81
3743,95,44
3742,95,2
3741,95,73
3740,95,52
3739,95,39
3738,95,96
3737,97,21
3736,97,59
3735,94,52
3734,97,65
3733,96,94
3732,96,29
3731,95,25
3730,94,58
3729,94,31
3728,94,55
3727,94,41
3726,95,43
3725,95,48
3724,94,98
3723,95,86
3722,95,85
3721,94,60
3720,94,81
3719,94,76
3718,94,25
3717,93,88
3716,94,8
3715,94,6
3714,94,96
3713,95,80
3712,97,44
3711,96,60
3710,96,42
3709,95,71
3708,95,2
3707,94,34
3706,94,31
3705,94,4
3704,94,9
3703,94,49
3702,95,81
3701,95,1
3700,93,89
3699,94,36
3698,94,6
3697,94,29
3696,93,90
3695,94,27
3694,94,28
3693,94,82
3692,95,40
3691,96,70
3690,97,28
3689,98,57
3688,98,34
3687,95,44
3686,94,64
3685,94,41
3684,94,45
3683,93,98
3682,93,85
3681,94,19
3680,95,26
3679,96,18
3678,95,65
3677,97,12
3676,101,71
3675,97,26
3674,96,79
3673,95,53
3672,95,65
3671,98,91
3670,97,83
3669,96,48
3668,95,30
3667,94,40
3666,94,1
3665,94,22
3664,93,90
3663,94,11
3662,93,87
3661,94,3
3660,94,12
3659,94,39
3658,94,55
3657,95,19
3656,96,44
3655,94,95
3654,94,47
3653,94,83
3652,96,18
3651,99,0
3650,98,99
3649,99,47
3648,99,30
3647,97,84
3646,96,20
3645,94,87
3644,94,13
3643,94,38
3642,94,77
3641,94,27
3640,94,24
3639,94,33
3638,95,0
3637,94,27
3636,94,50
3635,94,72
3634,95,29
3633,95,12
3632,94,72
3631,95,86
3630,97,36
3629,98,37
3628,97,47
3627,95,56
3626,95,3
3625,94,73
3624,94,38
3623,94,72
3622,94,63
3621,95,85
3620,96,57
3619,96,89
3618,95,78
3617,95,44
3616,95,38
3615,95,87
3614,96,41
3613,95,76
3612,95,64
3611,95,29
3610,95,42
3609,95,60
3608,95,62
3607,96,14
3606,94,85
3605,94,45
3604,94,6
3603,94,66
3602,94,80
3601,95,27
3600,95,26
3599,94,97
3598,94,91
3597,94,95
3596,95,22
3595,96,5
3594,94,95
3593,95,51
3592,94,66
3591,94,66
3590,94,93
3589,95,78
3588,96,3
3587,95,93
3586,96,0
3585,94,70
3584,94,92
3583,94,49
3582,94,69
3581,94,54
3580,94,72
3579,94,63
3578,94,57
3577,94,67
3576,94,69
3575,94,73
3574,94,53
3573,94,8
3572,94,39
3571,94,55
3570,94,68
3569,95,38
3568,97,22
3567,97,49
3566,97,19
3565,96,25
3564,95,15
3563,95,18
3562,94,85
3561,94,82
3560,94,89
3559,94,50
3558,94,59
3557,94,51
3556,94,74
3555,94,47
3554,94,76
3553,95,36
3552,95,36
3551,94,61
3550,94,59
3549,94,44
3548,94,92
3547,95,35
3546,95,5
3545,95,3
3544,94,85
3543,94,88
3542,94,23
3541,94,48
3540,94,48
3539,94,43
3538,94,49
3537,94,34
3536,95,12
3535,94,30
3534,94,47
3533,94,46
3532,94,49
3531,94,66
3530,94,67
3529,94,95
3528,95,17
3527,95,22
3526,95,17
3525,94,85
3524,94,91
3523,95,42
3522,95,29
3521,94,83
3520,94,76
3519,94,69
3518,94,48
3517,94,39
3516,94,53
3515,94,54
3514,94,63
3513,94,92
3512,94,42
3511,94,68
3510,94,83
3509,94,81
3508,95,15
3507,94,70
3506,94,45
3505,95,5
3504,95,7
3503,94,96
3502,95,10
3501,94,81
3500,94,76
3499,94,70
3498,94,66
3497,94,99
3496,95,3
3495,94,70
3494,94,70
3493,94,61
3492,94,77
3491,94,54
3490,94,69
3489,94,99
3488,94,87
3487,95,19
3486,94,48
3485,94,48
3484,94,75
3483,94,99
3482,95,26
3481,94,80
3480,94,82
3479,94,59
3478,94,53
3477,94,67
3476,94,81
3475,94,86
3474,94,72
3473,94,79
3472,94,73
3471,94,78
3470,94,69
3469,94,48
3468,94,70
3467,95,28
3466,94,76
3465,94,75
3464,94,93
3463,94,66
3462,94,81
3461,94,88
3460,94,83
3459,94,74
3458,94,47
3457,94,93
3456,94,93
3455,94,87
3454,94,97
3453,94,85
3452,94,71
3451,94,79
3450,94,80
3449,94,66
3448,95,9
3447,95,57
3446,95,17
3445,94,96
3444,94,87
3443,95,1
3442,95,11
3441,94,89
3440,94,97
3439,94,56
3438,95,4
3437,94,86
3436,94,83
3435,95,19
3434,95,5
3433,95,10
3432,94,78
3431,94,64
3430,94,78
3429,95,17
3428,94,49
3427,95,21
3426,94,95
3425,94,79
3424,94,60
3423,94,83
3422,95,51
3421,95,21
3420,94,90
3419,95,24
3418,94,73
3417,94,80
3416,95,10
3415,94,84
3414,95,12
3413,94,97
3412,94,70
3411,95,8
3410,94,92
3409,95,17
3408,94,93
3407,94,98
3406,95,10
3405,95,15
3404,94,85
3403,94,74
3402,95,2
3401,94,95
3400,95,4
3399,95,1
3398,95,7
3397,95,27
3396,95,42
3395,94,86
3394,95,0
3393,94,96
3392,95,24
3391,95,2
3390,95,3
3389,95,8
3388,95,6
3387,95,8
3386,94,85
3385,95,12
3384,95,2
3383,95,5
3382,95,17
3381,94,81
3380,94,83
3379,94,76
3378,95,10
3377,94,87
3376,94,83
3375,95,16
3374,95,21
3373,95,42
3372,95,10
3371,95,12
3370,94,84
3369,95,24
3368,95,28
3367,94,92
3366,95,28
3365,95,24
3364,95,51
3363,95,21
3362,95,9
3361,95,15
3360,95,33
3359,94,98
3358,95,37
3357,95,0
3356,95,26
3355,95,28
3354,95,66
3353,95,15
3352,95,35
3351,95,6
3350,95,0
3349,95,5
3348,95,3
3347,95,5
3346,95,16
3345,95,17
3344,95,6
3343,95,34
3342,94,96
3341,95,10
3340,95,14
3339,95,30
3338,95,12
3337,95,18
3336,95,46
3335,95,20
3334,95,27
3333,95,18
3332,95,33
3331,95,19
3330,95,22
3329,95,35
3328,95,46
3327,95,65
3326,95,39
3325,95,31
3324,95,39
3323,95,22
3322,95,16
3321,95,2
3320,95,12
3319,95,34
3318,95,41
3317,95,41
3316,95,73
3315,95,2
3314,95,11
3313,95,40
3312,95,38
3311,95,65
3310,95,61
3309,95,83
3308,95,18
3307,95,42
3306,95,55
3305,95,39
3304,95,25
3303,95,34
3302,95,76
3301,95,38
3300,95,35
3299,95,46
3298,95,37
3297,95,35
3296,95,43
3295,95,43
3294,95,83
3293,95,37
3292,95,38
3291,95,43
3290,95,53
3289,95,69
3288,95,63
3287,95,18
3286,95,71
3285,95,48
3284,95,68
3283,95,54
3282,95,49
3281,95,71
3280,95,78
3279,95,72
3278,95,50
3277,95,44
3276,95,72
3275,95,39
3274,95,89
3273,95,81
3272,95,42
3271,95,45
3270,95,16
3269,95,54
3268,95,60
3267,95,82
3266,95,60
3265,95,62
3264,95,37
3263,95,67
3262,95,83
3261,95,49
3260,95,67
3259,95,73
3258,95,85
3257,95,81
3256,95,56
3255,96,11
3254,95,67
3253,95,54
3252,95,88
3251,95,67
3250,95,48
3249,95,75
3248,95,81
3247,95,74
3246,95,82
3245,95,89
3244,95,84
3243,95,84
3242,95,58
3241,95,54
3240,95,62
3239,95,89
3238,95,55
3237,95,85
3236,95,48
3235,95,96
3234,95,77
3233,95,89
3232,95,88
3231,95,62
3230,95,73
3229,95,49
3228,95,57
3227,95,63
3226,95,88
3225,95,83
3224,95,93
3223,95,73
3222,96,3
3221,95,69
3220,95,86
3219,95,78
3218,95,80
3217,95,34
3216,95,62
3215,95,81
3214,95,86
3213,95,78
3212,95,52
3211,95,93
3210,95,68
3209,95,93
3208,95,72
3207,95,66
3206,95,77
3205,95,78
3204,95,98
3203,95,78
3202,95,80
3201,95,80
3200,95,84
3199,96,2
3198,96,37
3197,96,7
3196,95,97
3195,95,65
3194,95,79
3193,95,76
3192,95,64
3191,95,65
3190,95,36
3189,95,83
3188,95,81
3187,95,75
3186,95,67
3185,96,0
3184,95,96
3183,95,90
3182,95,69
3181,95,90
3180,95,65
3179,95,84
3178,95,63
3177,95,67
3176,95,93
3175,95,76
3174,95,87
3173,95,60
3172,96,2
3171,95,76
3170,95,56
3169,95,76
3168,95,57
3167,95,81
3166,96,6
3165,95,80
3164,95,66
3163,96,0
3162,95,92
3161,95,85
3160,95,95
3159,95,78
3158,95,54
3157,95,92
3156,95,73
3155,95,74
3154,96,6
3153,95,60
3152,95,87
3151,95,65
3150,95,63
3149,95,72
3148,95,79
3147,95,70
3146,95,85
3145,95,64
3144,96,7
3143,95,77
3142,95,71
3141,95,66
3140,95,59
3139,95,89
3138,95,64
3137,95,63
3136,95,77
3135,95,89
3134,95,67
3133,96,2
3132,95,97
3131,95,95
3130,95,76
3129,95,67
3128,95,66
3127,95,62
3126,95,87
3125,96,1
3124,95,78
3123,95,79
3122,95,89
3121,95,59
3120,95,60
3119,96,10
3118,95,95
3117,95,57
3116,96,11
3115,95,83
3114,95,78
3113,95,73
3112,95,87
3111,95,96
3110,95,80
3109,95,60
3108,95,89
3107,95,63
3106,95,66
3105,95,65
3104,95,78
3103,95,87
3102,96,13
3101,95,71
3100,95,70
3099,95,86
3098,95,85
3097,95,73
3096,95,97
3095,95,85
3094,95,67
3093,95,79
3092,95,99
3091,95,85
3090,95,66
3089,95,82
3088,96,0
3087,95,57
3086,95,47
3085,95,79
3084,95,87
3083,95,81
3082,95,56
3081,95,83
3080,95,97
3079,95,89
3078,96,6
3077,95,78
3076,95,58
3075,95,69
3074,96,11
3073,96,4
3072,95,78
3071,96,15
3070,95,70
3069,95,53
3068,95,78
3067,95,90
3066,95,85
3065,95,93
3064,96,2
3063,95,75
3062,95,63
3061,95,85
3060,95,75
3059,96,4
3058,95,62
3057,96,17
3056,96,25
3055,95,95
3054,95,83
3053,95,81
3052,95,75
3051,95,94
3050,95,83
3049,95,85
3048,95,80
3047,95,83
3046,95,83
3045,95,96
3044,95,75
3043,95,89
3042,95,77
3041,95,86
3040,95,84
3039,95,88
3038,95,93
3037,96,14
3036,95,92
3035,95,81
3034,95,75
3033,95,90
3032,96,4
3031,96,27
3030,96,13
3029,95,93
3028,95,88
3027,95,92
3026,95,66
3025,96,1
3024,96,2
3023,95,96
3022,95,73
3021,95,68
3020,96,5
3019,95,89
3018,95,92
3017,95,81
3016,96,1
3015,96,2
3014,96,7
3013,96,6
3012,95,96
3011,95,60
3010,95,89
3009,96,8
3008,95,87
3007,95,96
3006,96,5
3005,96,1
3004,95,83
3003,95,75
3002,96,0
3001,95,93
3000,95,95
2999,96,15
2998,96,6
2997,95,96
2996,96,31
2995,95,80
2994,95,99
2993,95,80
2992,95,98
2991,96,7
2990,96,5
2989,95,93
2988,96,4
2987,96,14
2986,95,98
2985,96,26
2984,95,88
2983,95,93
2982,95,93
2981,95,89
2980,95,84
2979,95,83
2978,96,5
2977,96,5
2976,95,94
2975,95,87
2974,96,10
2973,96,0
2972,95,95
2971,96,5
2970,96,5
2969,95,96
2968,95,81
2967,95,84
2966,96,15
2965,96,17
2964,95,94
2963,95,99
2962,95,98
2961,96,8
2960,96,11
2959,96,12
2958,96,4
2957,96,8
2956,96,25
2955,96,2
2954,95,93
2953,95,87
2952,95,84
2951,96,22
2950,96,20
2949,96,12
2948,95,91
2947,96,25
2946,95,92
2945,95,91
2944,96,14
2943,96,11
2942,96,4
2941,95,96
2940,95,98
2939,96,10
2938,96,17
2937,96,14
2936,96,1
2935,96,8
2934,96,17
2933,96,23
2932,96,4
2931,96,19
2930,96,5
2929,96,8
2928,96,15
2927,96,18
2926,96,4
2925,96,17
2924,96,4
2923,96,1
2922,96,7
2921,96,20
2920,96,9
2919,96,11
2918,96,11
2917,96,29
2916,96,11
2915,96,4
2914,96,12
2913,96,7
2912,96,10
2911,96,13
2910,96,12
2909,96,10
2908,96,11
2907,96,19
2906,95,95
2905,96,24
2904,96,11
2903,96,14
2902,96,15
2901,96,19
2900,96,27
2899,96,14
2898,96,3
2897,96,17
2896,96,22
2895,96,14
2894,96,19
2893,96,35
2892,96,28
2891,96,35
2890,96,35
2889,96,19
2888,96,13
2887,96,10
2886,96,22
2885,96,11
2884,96,30
2883,96,33
2882,96,40
2881,96,26
2880,96,34
2879,96,44
2878,96,34
2877,96,30
2876,96,39
2875,96,52
2874,96,27
2873,96,4
2872,96,17
2871,95,92
2870,96,26
2869,96,35
2868,96,41
2867,96,0
2866,96,36
2865,96,27
2864,96,26
2863,96,37
2862,96,38
2861,96,28
2860,96,21
2859,96,50
2858,96,50
2857,96,24
2856,96,44
2855,96,36
2854,96,28
2853,96,33
2852,96,43
2851,96,32
2850,96,41
2849,96,26
2848,96,39
2847,96,28
2846,96,41
2845,96,6
2844,96,41
2843,96,33
2842,96,38
2841,96,34
2840,96,21
2839,96,38
2838,96,41
2837,96,43
2836,96,50
2835,96,38
2834,96,52
2833,96,53
2832,96,29
2831,96,28
2830,96,40
2829,96,41
2828,96,45
2827,96,49
2826,96,31
2825,96,46
2824,96,59
2823,96,38
2822,96,42
2821,96,39
2820,96,51
2819,96,39
2818,96,44
2817,96,57
2816,96,42
2815,96,33
2814,96,35
2813,96,48
2812,96,41
2811,96,51
2810,96,51
2809,96,56
2808,96,33
2807,96,47
2806,96,49
2805,96,58
2804,96,68
2803,96,33
2802,96,40
2801,96,38
2800,96,44
2799,96,58
2798,96,44
2797,96,41
2796,96,46
2795,96,49
2794,96,44
2793,96,52
2792,96,51
2791,96,42
2790,96,47
2789,96,40
2788,96,50
2787,96,54
2786,96,32
2785,96,64
2784,96,46
2783,96,42
2782,96,44
2781,96,45
2780,96,40
2779,96,46
2778,96,57
2777,96,42
2776,96,64
2775,96,54
2774,96,56
2773,96,55
2772,96,47
2771,96,50
2770,96,53
2769,96,41
2768,96,41
2767,96,57
2766,96,73
2765,96,54
2764,96,38
2763,96,42
2762,96,52
2761,96,57
2760,96,47
2759,96,36
2758,96,63
2757,96,54
2756,96,57
2755,96,54
2754,96,46
2753,96,70
2752,96,55
2751,96,53
2750,96,40
2749,96,62
2748,96,43
2747,96,65
2746,96,61
2745,96,62
2744,96,59
2743,96,62
2742,96,75
2741,96,64
2740,96,55
2739,96,65
2738,96,63
2737,96,51
2736,96,51
2735,96,64
2734,96,56
2733,96,52
2732,96,40
2731,96,46
2730,96,50
2729,96,55
2728,96,48
2727,96,41
2726,96,60
2725,96,56
2724,96,47
2723,96,59
2722,96,40
2721,96,43
2720,96,56
2719,96,55
2718,96,54
2717,96,71
2716,96,65
2715,96,51
2714,96,54
2713,96,79
2712,96,71
2711,96,60
2710,96,56
2709,96,87
2708,96,72
2707,96,67
2706,96,62
2705,96,63
2704,96,59
2703,96,48
2702,96,57
2701,96,51
2700,96,62
2699,96,67
2698,96,62
2697,96,63
2696,96,69
2695,96,50
2694,96,51
2693,96,73
2692,96,70
2691,96,66
2690,96,63
2689,96,70
2688,96,63
2687,96,47
2686,96,57
2685,96,58
2684,96,70
2683,96,44
2682,96,57
2681,96,56
2680,96,52
2679,96,79
2678,96,73
2677,96,57
2676,96,42
2675,96,70
2674,96,71
2673,96,58
2672,96,61
2671,96,45
2670,96,60
2669,96,67
2668,96,52
2667,96,57
2666,96,53
2665,96,65
2664,96,68
2663,96,62
2662,96,70
2661,96,68
2660,96,65
2659,96,44
2658,96,81
2657,96,62
2656,96,49
2655,96,55
2654,96,58
2653,96,56
2652,96,52
2651,96,59
2650,96,63
2649,96,43
2648,96,38
2647,96,55
2646,96,68
2645,96,50
2644,96,56
2643,96,32
2642,96,49
2641,96,64
2640,96,69
2639,96,36
2638,96,60
2637,96,70
2636,96,52
2635,96,46
2634,96,62
2633,96,39
2632,96,46
2631,96,41
2630,96,79
2629,96,60
2628,96,55
2627,96,43
2626,96,47
2625,96,43
2624,96,57
2623,96,50
2622,96,43
2621,96,49
2620,96,49
2619,96,42
2618,96,54
2617,96,62
2616,96,38
2615,96,38
2614,96,48
2613,96,54
2612,96,42
2611,96,34
2610,96,52
2609,96,44
2608,96,46
2607,96,59
2606,96,71
2605,96,47
2604,96,31
2603,96,70
2602,96,49
2601,96,36
2600,96,50
2599,96,54
2598,96,20
2597,96,31
2596,96,46
2595,96,43
2594,96,41
2593,96,58
2592,96,69
2591,96,29
2590,96,58
2589,96,61
2588,96,53
2587,96,53
2586,96,30
2585,96,59
2584,96,63
2583,96,66
2582,96,52
2581,96,44
2580,96,78
2579,96,47
2578,96,55
2577,96,47
2576,96,44
2575,96,47
2574,96,53
2573,96,66
2572,96,51
2571,96,69
2570,96,34
2569,96,74
2568,96,83
2567,96,52
2566,96,73
2565,96,50
2564,96,29
2563,96,36
2562,96,44
2561,96,62
2560,96,38
2559,96,59
2558,96,93
2557,96,54
2556,96,69
2555,96,66
2554,96,70
2553,96,72
2552,96,63
2551,96,42
2550,96,43
2549,96,56
2548,96,69
2547,96,52
2546,96,68
2545,96,39
2544,96,66
2543,96,29
2542,96,74
2541,96,61
2540,96,52
2539,96,53
2538,96,44
2537,96,53
2536,96,76
2535,96,56
2534,96,66
2533,96,28
2532,96,47
2531,96,52
2530,96,62
2529,96,53
2528,96,73
2527,96,56
2526,96,67
2525,96,59
2524,96,49
2523,96,46
2522,96,69
2521,96,59
2520,96,53
2519,96,75
2518,96,43
2517,96,63
2516,96,51
2515,96,63
2514,96,93
2513,96,52
2512,96,46
2511,96,66
2510,96,76
2509,96,74
2508,96,76
2507,96,51
2506,96,55
2505,96,62
2504,96,64
2503,96,81
2502,96,37
2501,96,43
2500,96,72
2499,96,64
2498,96,65
2497,96,66
2496,96,77
2495,96,61
2494,96,45
2493,96,60
2492,96,83
2491,96,93
2490,96,62
2489,96,58
2488,96,58
2487,96,51
2486,96,63
2485,96,70
2484,96,46
2483,96,60
2482,96,79
2481,96,65
2480,96,64
2479,96,74
2478,96,67
2477,96,70
2476,96,55
2475,96,90
2474,96,75
2473,96,83
2472,96,67
2471,96,55
2470,96,79
2469,96,55
2468,96,64
2467,96,65
2466,96,85
2465,96,79
2464,96,81
2463,96,97
2462,96,77
2461,96,86
2460,96,70
2459,96,84
2458,96,70
2457,96,86
2456,96,88
2455,96,70
2454,96,50
2453,96,68
2452,96,56
2451,96,71
2450,96,74
2449,96,75
2448,96,78
2447,96,57
2446,96,72
2445,96,73
2444,96,76
2443,96,84
2442,96,75
2441,96,72
2440,96,83
2439,96,77
2438,96,84
2437,96,76
2436,96,99
2435,96,92
2434,96,69
2433,96,86
2432,97,21
2431,96,78
2430,96,65
2429,96,83
2428,96,78
2427,96,75
2426,96,79
2425,96,71
2424,96,76
2423,97,3
2422,96,91
2421,96,81
2420,96,95
2419,96,68
2418,96,86
2417,97,1
2416,96,94
2415,96,96
2414,96,97
2413,96,81
2412,96,97
2411,97,0
2410,96,84
2409,96,89
2408,97,1
2407,96,73
2406,96,94
2405,97,5
2404,96,78
2403,97,18
2402,96,81
2401,96,82
2400,96,89
2399,97,30
2398,96,82
2397,96,94
2396,97,5
2395,97,18
2394,97,16
2393,96,60
2392,96,73
2391,96,96
2390,97,36
2389,97,2
2388,97,14
2387,96,80
2386,96,97
2385,97,19
2384,97,33
2383,97,16
2382,97,19
2381,97,75
2380,97,54
2379,97,50
2378,97,45
2377,98,18
2376,97,68
2375,98,27
2374,98,49
2373,97,47
2372,97,84
2371,97,66
2370,97,54
2369,98,34
2368,97,87
2367,98,46
2366,98,36
2365,98,17
2364,97,57
2363,98,23
2362,98,52
2361,98,17
2360,98,94
2359,98,6
2358,98,59
2357,98,47
2356,97,32
2355,98,24
2354,98,46
2353,98,28
2352,98,14
2351,98,28
2350,97,74
2349,98,8
2348,97,63
2347,98,12
2346,97,82
2345,98,19
2344,98,65
2343,97,84
2342,97,54
2341,97,44
2340,97,86
2339,98,9
2338,97,76
2337,98,51
2336,98,6
2335,97,54
2334,98,15
2333,98,45
2332,98,86
2331,97,83
2330,97,98
2329,98,3
2328,97,73
2327,97,10
2326,98,31
2325,97,53
2324,97,92
2323,97,49
2322,97,58
2321,98,1
2320,98,36
2319,98,66
2318,97,85
2317,98,31
2316,98,16
2315,97,91
2314,97,52
2313,97,93
2312,97,72
2311,98,2
2310,97,68
2309,97,77
2308,97,83
2307,98,14
2306,98,12
2305,97,84
2304,97,84
2303,97,42
2302,97,61
2301,97,45
2300,97,46
2299,97,46
2298,97,50
2297,97,65
2296,97,26
2295,97,54
2294,97,67
2293,97,75
2292,97,13
2291,97,32
2290,97,24
2289,97,38
2288,97,53
2287,97,74
2286,97,40
2285,97,11
2284,97,27
2283,97,48
2282,97,29
2281,97,34
2280,97,21
2279,97,40
2278,97,37
2277,97,36
2276,97,5
2275,97,22
2274,97,37
2273,97,4
2272,97,46
2271,97,45
2270,97,35
2269,97,17
2268,97,14
2267,97,46
2266,97,23
2265,97,52
2264,97,9
2263,97,44
2262,97,64
2261,97,32
2260,96,87
2259,97,15
2258,97,29
2257,97,47
2256,97,0
2255,97,45
2254,97,45
2253,96,80
2252,97,12
2251,97,49
2250,97,26
2249,97,45
2248,97,60
2247,97,41
2246,96,62
2245,97,52
2244,97,25
2243,97,55
2242,97,58
2241,97,11
2240,97,11
2239,97,30
2238,97,73
2237,97,37
2236,97,3
2235,96,99
2234,97,23
2233,97,19
2232,96,89
2231,97,99
2230,98,4
2229,97,26
2228,97,67
2227,97,43
2226,97,14
2225,97,30
2224,97,46
2223,97,40
2222,97,11
2221,97,41
2220,97,43
2219,97,91
2218,97,81
2217,97,22
2216,97,36
2215,97,78
2214,97,43
2213,97,8
2212,97,24
2211,97,31
2210,97,55
2209,97,40
2208,97,95
2207,98,2
2206,96,78
2205,97,58
2204,97,52
2203,97,23
2202,96,71
2201,97,14
2200,97,46
2199,97,36
2198,97,33
2197,98,16
2196,97,42
2195,96,94
2194,97,44
2193,97,20
2192,97,86
2191,97,82
2190,97,3
2189,96,96
2188,97,24
2187,96,65
2186,97,51
2185,97,61
2184,96,82
2183,97,76
2182,97,42
2181,97,25
2180,97,27
2179,97,61
2178,97,30
2177,97,91
2176,96,88
2175,97,8
2174,97,57
2173,97,60
2172,97,21
2171,97,74
2170,98,0
2169,96,51
2168,97,14
2167,97,52
2166,96,67
2165,97,6
2164,96,59
2163,96,89
2162,97,3
2161,97,6
2160,96,87
2159,97,24
2158,98,78
2157,97,39
2156,96,80
2155,97,23
2154,97,77
2153,97,92
2152,97,56
2151,98,31
2150,97,39
2149,97,76
2148,98,14
2147,98,13
2146,97,6
2145,97,38
2144,97,47
2143,97,40
2142,97,98
2141,98,3
2140,97,82
2139,97,77
2138,97,51
2137,97,1
2136,97,43
2135,97,70
2134,97,56
2133,97,50
2132,97,45
2131,98,3
2130,97,44
2129,98,13
2128,97,35
2127,97,46
2126,97,79
2125,97,35
2124,97,55
2123,97,80
2122,97,90
2121,97,65
2120,98,17
2119,97,99
2118,97,50
2117,97,90
2116,97,92
2115,97,48
2114,97,94
2113,97,80
2112,97,50
2111,97,75
2110,97,70
2109,97,66
2108,97,71
2107,97,58
2106,97,68
2105,98,2
2104,97,77
2103,97,61
2102,97,99
2101,97,74
2100,97,78
2099,97,58
2098,98,2
2097,98,5
2096,97,77
2095,97,46
2094,97,84
2093,97,70
2092,97,97
2091,97,83
2090,98,0
2089,97,92
2088,97,84
2087,97,34
2086,97,73
2085,97,57
2084,97,84
2083,97,67
2082,97,63
2081,97,24
2080,97,44
2079,97,89
2078,98,8
2077,97,40
2076,97,39
2075,97,70
2074,97,48
2073,97,81
2072,97,82
2071,97,82
2070,97,80
2069,97,59
2068,97,96
2067,97,69
2066,97,55
2065,97,57
2064,97,50
2063,97,26
2062,97,55
2061,98,5
2060,97,86
2059,97,31
2058,96,94
2057,97,22
2056,97,87
2055,97,83
2054,97,89
2053,97,65
2052,97,68
2051,97,24
2050,97,21
2049,97,44
2048,97,94
2047,97,70
2046,98,5
2045,97,54
2044,96,74
2043,98,45
2042,97,40
2041,97,20
2040,97,80
2039,97,51
2038,97,4
2037,97,60
2036,97,37
2035,98,7
2034,97,56
2033,97,69
2032,97,53
2031,97,33
2030,98,38
2029,97,48
2028,98,19
2027,97,28
2026,96,86
2025,97,37
2024,97,83
2023,96,94
2022,97,60
2021,97,51
2020,98,16
2019,97,10
2018,97,74
2017,97,42
2016,97,73
2015,97,83
2014,97,97
2013,97,31
2012,97,68
2011,98,27
2010,97,18
2009,97,56
2008,97,27
2007,97,0
2006,97,87
2005,97,80
2004,97,47
2003,98,0
2002,98,6
2001,97,84
2000,98,0
1999,98,14
1998,97,76
1997,97,57
1996,97,75
1995,97,66
1994,98,5
1993,97,34
1992,97,94
1991,98,28
1990,97,70
1989,97,28
1988,97,12
1987,98,1
1986,97,61
1985,97,22
1984,97,97
1983,97,62
1982,97,50
1981,97,49
1980,97,66
1979,97,21
1978,97,18
1977,97,47
1976,97,84
1975,98,44
1974,98,21
1973,97,48
1972,98,25
1971,98,19
1970,97,61
1969,98,42
1968,98,11
1967,97,84
1966,98,14
1965,97,38
1964,98,27
1963,97,42
1962,97,96
1961,97,17
1960,97,63
1959,98,24
1958,97,51
1957,98,7
1956,98,13
1955,97,73
1954,97,94
1953,97,69
1952,97,64
1951,97,72
1950,98,22
1949,97,95
1948,97,88
1947,97,81
1946,97,49
1945,97,92
1944,98,24
1943,97,39
1942,98,31
1941,98,76
1940,98,5
1939,97,65
1938,98,25
1937,98,15
1936,97,51
1935,97,76
1934,98,3
1933,97,75
1932,97,93
1931,98,18
1930,98,43
1929,98,13
1928,97,89
1927,97,46
1926,98,38
1925,97,92
1924,97,97
1923,98,22
1922,98,20
1921,98,39
1920,97,83
1919,97,70
1918,98,46
1917,98,45
1916,98,34
1915,97,79
1914,98,10
1913,98,17
1912,98,8
1911,97,92
1910,98,16
1909,98,41
1908,98,23
1907,98,42
1906,98,13
1905,98,3
1904,98,0
1903,97,94
1902,98,6
1901,98,48
1900,97,92
1899,98,10
1898,97,99
1897,98,16
1896,98,6
1895,98,39
1894,98,28
1893,98,15
1892,98,5
1891,98,16
1890,98,14
1889,98,48
1888,98,28
1887,97,96
1886,97,83
1885,98,24
1884,98,4
1883,97,94
1882,98,19
1881,98,17
1880,97,85
1879,98,23
1878,98,13
1877,97,98
1876,98,1
1875,98,0
1874,97,93
1873,98,3
1872,98,22
1871,98,14
1870,97,81
1869,97,77
1868,98,59
1867,98,51
1866,98,39
1865,97,99
1864,97,98
1863,98,20
1862,98,18
1861,98,26
1860,98,17
1859,98,11
1858,98,29
1857,98,24
1856,98,57
1855,98,36
1854,98,37
1853,98,25
1852,98,33
1851,98,21
1850,98,14
1849,98,24
1848,98,0
1847,98,38
1846,98,11
1845,98,11
1844,98,64
1843,98,87
1842,98,50
1841,98,50
1840,98,10
1839,98,14
1838,98,8
1837,98,65
1836,98,35
1835,98,39
1834,98,43
1833,98,24
1832,98,16
1831,98,13
1830,98,33
1829,99,21
1828,98,71
1827,98,19
1826,98,4
1825,98,94
1824,98,54
1823,98,30
1822,98,33
1821,98,37
1820,98,29
1819,98,30
1818,98,26
1817,98,36
1816,98,29
1815,98,51
1814,98,35
1813,98,24
1812,98,27
1811,98,57
1810,98,76
1809,98,41
1808,98,18
1807,98,56
1806,98,29
1805,98,33
1804,98,47
1803,98,24
1802,98,19
1801,98,61
1800,98,53
1799,98,63
1798,98,50
1797,98,33
1796,98,19
1795,98,34
1794,98,55
1793,98,35
1792,98,58
1791,98,92
1790,98,42
1789,98,51
1788,98,28
1787,98,63
1786,98,35
1785,98,52
1784,98,46
1783,98,47
1782,98,20
1781,98,27
1780,98,88
1779,98,41
1778,98,54
1777,98,51
1776,98,35
1775,98,59
1774,98,52
1773,98,36
1772,98,49
1771,99,28
1770,98,95
1769,98,33
1768,98,39
1767,98,60
1766,98,53
1765,98,29
1764,98,10
1763,98,32
1762,98,60
1761,98,69
1760,98,66
1759,98,26
1758,98,23
1757,98,67
1756,98,63
1755,98,64
1754,98,36
1753,98,36
1752,98,16
1751,98,78
1750,98,87
1749,98,77
1748,98,93
1747,99,0
1746,98,80
1745,98,50
1744,98,54
1743,99,5
1742,98,75
1741,98,47
1740,98,67
1739,98,89
1738,98,73
1737,98,56
1736,98,48
1735,98,26
1734,98,94
1733,98,82
1732,98,92
1731,98,51
1730,98,32
1729,98,95
1728,98,68
1727,98,47
1726,98,45
1725,98,40
1724,98,57
1723,98,56
1722,98,64
1721,98,77
1720,98,23
1719,98,23
1718,98,57
1717,98,81
1716,98,85
1715,99,7
1714,99,13
1713,98,68
1712,98,54
1711,98,42
1710,98,72
1709,98,58
1708,98,51
1707,98,78
1706,99,43
1705,98,81
1704,99,21
1703,98,66
1702,98,81
1701,97,84
1700,89,60
1699,99,57
1698,99,18
1697,98,80
1696,97,32
1695,98,64
1694,99,1
1693,98,58
1692,98,76
1691,98,52
1690,98,68
1689,98,50
1688,98,62
1687,98,67
1686,98,81
1685,97,46
1684,97,93
1683,99,57
1682,99,0
1681,98,49
1680,98,71
1679,98,91
1678,98,79
1677,98,73
1676,98,85
1675,98,61
1674,99,9
1673,98,62
1672,98,79
1671,98,75
1670,99,10
1669,99,21
1668,99,20
1667,98,75
1666,98,70
1665,98,52
1664,98,69
1663,99,16
1662,98,93
1661,98,80
1660,98,63
1659,98,46
1658,98,58
1657,98,73
1656,98,67
1655,98,57
1654,98,75
1653,68,34
1652,99,71
1651,99,36
1650,98,65
1649,98,63
1648,98,85
1647,99,80
1646,99,64
1645,99,7
1644,98,71
1643,98,85
1642,98,64
1641,98,36
1640,98,73
1639,98,76
1638,98,95
1637,99,15
1636,99,14
1635,99,41
1634,99,9
1633,98,86
1632,98,62
1631,98,51
1630,98,79
1629,98,60
1628,99,4
1627,98,99
1626,98,64
1625,98,64
1624,98,99
1623,98,93
1622,98,91
1621,98,51
1620,98,53
1619,98,86
1618,98,56
1617,98,65
1616,99,21
1615,99,21
1614,98,60
1613,98,53
1612,98,60
1611,98,48
1610,98,58
1609,98,78
1608,98,65
1607,98,74
1606,98,58
1605,98,45
1604,98,41
1603,98,69
1602,98,92
1601,98,63
1600,98,61
1599,98,61
1598,98,63
1597,98,64
1596,98,71
1595,98,58
1594,98,88
1593,98,46
1592,98,64
1591,98,63
1590,98,63
1589,98,69
1588,98,62
1587,98,60
1586,98,64
1585,98,65
1584,98,57
1583,98,64
1582,98,69
1581,98,76
1580,98,53
1579,98,63
1578,98,66
1577,99,10
1576,99,46
1575,99,21
1574,98,87
1573,98,75
1572,98,81
1571,98,78
1570,98,99
1569,99,58
1568,99,13
1567,98,80
1566,98,61
1565,98,98
1564,98,99
1563,98,69
1562,98,73
1561,99,5
1560,93,53
1559,100,99
1558,101,80
1557,99,86
1556,99,4
1555,98,85
1554,98,79
1553,98,86
1552,98,87
1551,98,62
1550,98,43
1549,98,96
1548,98,76
1547,98,72
1546,98,42
1545,98,42
1544,99,15
1543,99,8
1542,99,32
1541,100,15
1540,100,31
1539,99,60
1538,99,73
1537,99,3
1536,98,73
1535,98,61
1534,98,52
1533,100,16
1532,99,23
1531,98,94
1530,98,68
1529,98,60
1528,98,89
1527,98,97
1526,99,0
1525,99,0
1524,99,16
1523,99,7
1522,98,88
1521,98,68
1520,100,2
1519,99,2
1518,99,8
1517,99,71
1516,99,32
1515,99,25
1514,99,6
1513,98,56
1512,98,91
1511,98,83
1510,98,85
1509,99,18
1508,98,33
1507,100,58
1506,101,57
1505,99,66
1504,99,21
1503,99,4
1502,98,60
1501,98,87
1500,98,91
1499,98,96
1498,99,20
1497,99,4
1496,99,24
1495,99,31
1494,98,87
1493,98,64
1492,98,77
1491,98,49
1490,99,19
1489,99,45
1488,99,18
1487,99,60
1486,99,0
1485,99,0
1484,98,87
1483,98,82
1482,98,67
1481,98,97
1480,99,0
1479,98,99
1478,98,73
1477,98,76
1476,99,90
1475,99,6
1474,98,72
1473,98,80
1472,100,38
1471,99,75
1470,99,9
1469,98,93
1468,98,88
1467,99,5
1466,98,89
1465,99,0
1464,99,48
1463,99,1
1462,98,97
1461,98,95
1460,98,85
1459,98,91
1458,99,80
1457,99,19
1456,99,27
1455,99,34
1454,99,23
1453,99,5
1452,98,85
1451,99,1
1450,99,6
1449,98,95
1448,98,95
1447,99,36
1446,99,0
1445,98,84
1444,98,97
1443,98,87
1442,99,4
1441,99,0
1440,99,6
1439,99,8
1438,98,64
1437,98,40
1436,99,34
1435,99,42
1434,99,6
1433,98,89
1432,99,21
1431,98,95
1430,99,31
1429,99,29
1428,99,7
1427,99,7
1426,99,8
1425,98,82
1424,98,74
1423,99,48
1422,99,19
1421,99,6
1420,98,90
1419,99,37
1418,99,59
1417,99,48
1416,99,7
1415,99,14
1414,99,15
1413,99,17
1412,98,83
1411,99,14
1410,98,95
1409,99,15
1408,99,6
1407,99,9
1406,98,93
1405,99,39
1404,99,36
1403,99,7
1402,98,98
1401,99,14
1400,98,90
1399,99,37
1398,99,33
1397,99,17
1396,98,97
1395,99,39
1394,99,58
1393,99,38
1392,99,6
1391,98,90
1390,99,12
1389,98,95
1388,98,88
1387,99,19
1386,99,30
1385,99,37
1384,99,25
1383,99,29
1382,99,19
1381,99,25
1380,99,14
1379,99,8
1378,99,7
1377,99,12
1376,98,99
1375,99,25
1374,99,44
1373,99,34
1372,99,6
1371,99,11
1370,99,14
1369,99,4
1368,99,42
1367,99,23
1366,99,17
1365,99,10
1364,98,86
1363,98,97
1362,99,46
1361,99,48
1360,99,24
1359,99,19
1358,99,11
1357,99,20
1356,99,20
1355,98,90
1354,99,24
1353,99,22
1352,99,11
1351,99,16
1350,99,24
1349,99,23
1348,99,14
1347,99,8
1346,99,16
1345,99,18
1344,99,30
1343,99,20
1342,99,10
1341,98,91
1340,99,22
1339,99,30
1338,99,30
1337,98,99
1336,99,40
1335,99,32
1334,99,11
1333,99,29
1332,99,23
1331,99,13
1330,99,17
1329,99,26
1328,99,15
1327,99,16
1326,99,40
1325,99,19
1324,99,16
1323,98,98
1322,99,34
1321,99,4
1320,99,10
1319,99,12
1318,99,23
1317,99,24
1316,99,42
1315,99,10
1314,99,18
1313,99,8
1312,99,1
1311,99,26
1310,99,31
1309,99,19
1308,99,15
1307,99,15
1306,99,22
1305,99,24
1304,99,19
1303,99,24
1302,99,29
1301,99,16
1300,99,20
1299,99,15
1298,99,18
1297,99,19
1296,99,13
1295,98,94
1294,99,18
1293,99,6
1292,99,3
1291,99,17
1290,99,21
1289,99,10
1288,99,13
1287,98,99
1286,99,3
1285,99,21
1284,99,9
1283,99,2
1282,99,21
1281,99,11
1280,99,14
1279,99,2
1278,99,10
1277,98,97
1276,98,95
1275,99,20
1274,99,8
1273,99,5
1272,99,2
1271,99,10
1270,99,6
1269,98,97
1268,99,23
1267,99,9
1266,98,95
1265,99,3
1264,99,7
1263,99,9
1262,99,14
1261,98,87
1260,98,92
1259,99,1
1258,99,17
1257,98,94
1256,99,0
1255,98,92
1254,99,5
1253,98,91
1252,98,89
1251,98,87
1250,98,85
1249,98,93
1248,98,80
1247,98,98
1246,99,5
1245,98,79
1244,98,75
1243,98,88
1242,98,89
1241,98,77
1240,98,65
1239,98,63
1238,98,65
1237,98,82
1236,98,54
1235,98,51
1234,98,58
1233,98,73
1232,98,36
1231,98,72
1230,98,53
1229,98,46
1228,98,38
1227,98,26
1226,98,42
1225,98,25
1224,98,9
1223,98,19
1222,98,9
1221,98,21
1220,97,94
1219,98,6
1218,97,89
1217,97,76
1216,97,66
1215,97,52
1214,97,49
1213,97,34
1212,97,21
1211,97,9
1210,97,21
1209,96,95
1208,96,95
1207,96,79
1206,96,88
1205,96,56
1204,96,50
1203,96,36
1202,96,36
1201,96,45
1200,96,38
1199,96,29
1198,95,82
1197,96,14
1196,95,99
1195,95,92
1194,95,71
1193,95,77
1192,95,60
1191,95,64
1190,95,82
1189,95,48
1188,95,51
1187,95,34
1186,95,18
1185,95,16
1184,95,14
1183,95,12
1182,95,7
1181,94,93
1180,94,60
1179,94,59
1178,94,60
1177,94,50
1176,94,42
1175,94,7
1174,94,16
1173,94,16
1172,93,70
1171,93,43
1170,93,57
1169,93,34
1168,93,21
1167,92,98
1166,92,72
1165,93,8
1164,92,82
1163,92,76
1162,92,86
1161,93,32
1160,92,92
1159,93,17
1158,93,30
1157,93,30
1156,93,30
1155,93,34
1154,93,37
1153,93,21
1152,92,82
1151,92,76
1150,92,54
1149,92,98
1148,92,78
1147,91,95
1146,92,43
1145,91,81
1144,92,9
1143,92,20
1142,91,72
1141,91,76
1140,91,93
1139,91,65
1138,91,60
1137,91,57
1136,91,44
1135,91,36
1134,91,18
1133,90,97
1132,90,99
1131,91,14
1130,90,57
1129,90,57
1128,90,83
1127,90,58
1126,90,57
1125,90,27
1124,90,14
1123,90,18
1122,89,77
1121,89,60
1120,90,18
1119,90,19
1118,89,33
1117,89,65
1116,89,89
1115,89,64
1114,89,32
1113,89,42
1112,89,53
1111,89,16
1110,89,24
1109,88,99
1108,88,81
1107,88,66
1106,88,33
1105,88,57
1104,88,49
1103,88,3
1102,87,98
1101,88,59
1100,88,14
1099,87,60
1098,88,8
1097,87,82
1096,88,6
1095,87,55
1094,87,34
1093,87,18
1092,87,52
1091,87,78
1090,87,61
1089,87,56
1088,87,14
1087,87,36
1086,87,19
1085,86,90
1084,87,42
1083,87,16
1082,87,7
1081,87,34
1080,87,32
1079,87,21
1078,87,24
1077,87,46
1076,87,64
1075,87,96
1074,87,73
1073,87,93
1072,87,72
1071,87,78
1070,87,77
1069,88,14
1068,88,2
1067,88,14
1066,87,85
1065,87,70
1064,88,1
1063,87,60
1062,87,69
1061,87,29
1060,87,48
1059,87,42
1058,87,57
1057,87,55
1056,87,49
1055,87,97
1054,87,46
1053,88,0
1052,87,57
1051,87,99
1050,87,50
1049,88,4
1048,87,94
1047,88,10
1046,88,58
1045,88,7
1044,88,13
1043,88,46
1042,88,33
1041,88,69
1040,88,30
1039,88,39
1038,88,81
1037,88,70
1036,88,45
1035,88,77
1034,88,72
1033,88,44
1032,88,69
1031,88,75
1030,88,85
1029,88,97
1028,89,9
1027,88,88
1026,89,9
1025,89,20
1024,88,86
1023,89,34
1022,89,2
1021,89,1
1020,89,41
1019,89,34
1018,89,43
1017,89,64
1016,89,45
1015,89,86
1014,90,7
1013,89,74
1012,89,94
1011,89,83
1010,89,75
1009,89,97
1008,90,8
1007,89,87
1006,89,88
1005,90,3
1004,90,29
1003,90,21
1002,90,16
1001,90,6
1000,90,51
999,90,49
998,90,25
997,90,53
996,90,44
995,90,49
994,90,78
993,90,87
992,90,76
991,90,75
990,90,72
989,90,87
988,91,6
987,91,17
986,91,6
985,90,93
984,90,88
983,91,15
982,91,50
981,91,27
980,91,40
979,91,51
978,91,65
977,91,66
976,91,43
975,91,50
974,91,78
973,91,92
972,92,15
971,91,59
970,91,90
969,92,6
968,92,26
967,92,0
966,92,38
965,92,16
964,92,16
963,92,44
962,92,48
961,92,45
960,92,29
959,92,51
958,92,62
957,92,81
956,92,72
955,92,81
954,92,69
953,92,63
952,92,59
951,93,9
950,92,80
949,93,38
948,93,18
947,93,7
946,93,5
945,93,36
944,92,73
943,93,44
942,93,49
941,93,35
940,93,32
939,93,24
938,93,34
937,93,85
936,93,71
935,93,57
934,93,25
933,93,69
932,93,57
931,93,57
930,93,57
929,93,79
928,93,75
927,94,0
926,93,57
925,94,7
924,93,73
923,93,71
922,94,37
921,94,9
920,93,98
919,94,7
918,94,27
917,94,14
916,94,18
915,93,95
914,94,4
913,94,14
912,94,24
911,94,89
910,94,62
909,94,51
908,94,61
907,94,77
906,94,49
905,95,0
904,94,91
903,94,76
902,94,77
901,94,81
900,94,75
899,95,13
898,95,6
897,94,86
896,94,75
895,95,33
894,95,0
893,94,86
892,95,23
891,95,63
890,95,29
889,95,26
888,95,27
887,94,91
886,95,57
885,95,17
884,95,69
883,95,49
882,95,60
881,95,47
880,95,51
879,95,19
878,95,37
877,96,26
876,95,94
875,95,97
874,95,92
873,96,16
872,95,68
871,96,17
870,96,21
869,96,39
868,96,8
867,96,34
866,96,42
865,96,51
864,96,47
863,96,65
862,96,88
861,96,63
860,97,9
859,96,89
858,96,57
857,96,30
856,96,49
855,96,58
854,97,17
853,96,84
852,97,11
851,96,63
850,97,10
849,97,17
848,96,91
847,97,29
846,97,41
845,97,18
844,97,21
843,97,30
842,98,8
841,97,66
840,97,43
839,97,24
838,97,68
837,97,53
836,97,49
835,98,15
834,97,51
833,97,30
832,98,15
831,97,23
830,97,41
829,97,59
828,97,96
827,97,99
826,97,54
825,98,44
824,97,80
823,97,49
822,97,97
821,97,88
820,97,71
819,97,77
818,97,41
817,97,81
816,97,16
815,97,43
814,97,44
813,97,17
812,97,5
811,96,85
810,96,19
809,96,3
808,95,61
807,95,16
806,94,67
805,93,52
804,92,76
803,92,99
802,91,94
801,92,12
800,91,48
799,90,88
798,90,91
797,90,58
796,90,85
795,91,17
794,91,16
793,90,86
792,91,13
791,91,47
790,92,12
789,91,59
788,91,64
787,91,97
786,91,57
785,91,22
784,91,32
783,90,53
782,90,12
781,90,12
780,89,94
779,89,55
778,89,88
777,90,14
776,90,18
775,89,73
774,90,13
773,90,82
772,90,97
771,90,86
770,91,29
769,91,7
768,91,39
767,92,2
766,91,60
765,92,25
764,92,48
763,92,26
762,92,16
761,92,46
760,92,71
759,93,9
758,93,3
757,93,28
756,93,4
755,93,84
754,93,60
753,93,81
752,93,99
751,93,84
750,93,86
749,93,86
748,93,75
747,94,16
746,94,17
745,94,15
744,94,92
743,94,6
742,94,59
741,94,66
740,94,20
739,94,5
738,94,66
737,95,29
736,94,82
735,94,88
734,94,83
733,94,91
732,94,83
731,94,96
730,95,65
729,95,96
728,94,95
727,94,76
726,95,13
725,95,25
724,95,24
723,95,36
722,95,27
721,94,87
720,95,39
719,95,22
718,95,99
717,95,57
716,95,74
715,95,52
714,95,32
713,95,64
712,95,97
711,95,67
710,96,0
709,95,73
708,95,63
707,95,46
706,95,93
705,95,89
704,95,80
703,96,27
702,96,31
701,95,45
700,95,33
699,95,27
698,94,91
697,94,19
696,94,2
695,93,10
694,93,38
693,93,2
692,94,23
691,93,54
690,93,68
689,94,14
688,94,84
687,95,42
686,94,15
685,95,6
684,95,60
683,94,96
682,95,42
681,95,39
680,95,85
679,96,95
678,95,97
677,94,89
676,95,50
675,96,79
674,96,31
673,96,21
672,95,62
671,95,99
670,97,24
669,97,75
668,76,73
667,97,57
666,96,35
665,96,95
664,97,38
663,96,25
662,97,7
661,96,90
660,96,55
659,96,33
658,96,20
657,96,75
656,97,26
655,96,43
654,96,69
653,96,46
652,96,70
651,94,67
650,97,74
649,97,11
648,96,59
647,97,67
646,95,55
645,95,95
644,97,19
643,97,5
642,97,93
641,96,0
640,96,74
639,97,79
638,95,85
637,97,28
636,97,9
635,96,67
634,96,98
633,96,39
632,95,93
631,97,93
630,96,85
629,96,64
628,97,67
627,99,16
626,98,77
625,97,37
624,98,3
623,94,57
622,93,70
621,98,21
620,98,7
619,99,75
618,95,36
617,89,76
616,100,43
615,101,83
614,99,29
613,100,87
612,94,66
611,97,59
610,100,21
609,95,97
608,92,13
607,97,97
606,95,64
605,93,82
604,96,77
603,97,40
602,91,67
601,97,44
600,97,76
