*TYPE		=  Raw
*CLASS		=  ASCII CLASS
*SAMPLE		=  AEFE01
*COMMENT	=   
*FNAME		=  aefe01_Theta_2-Theta.asc
*DATE		=  04-Mar-26 13:59

*GROUP_COUNT	=  1
*GONIO		=  MiniFlex 300/600 +, 150
*ATTACHMENT	=  ASC-6
*ASC		=  0, 0, 0.000000, 0.000000
*FILTER		=  None
*C_MONOCHRO	=  None, 0.000000
*SLIT_NAME	=  0, IHS
*SLIT_NAME	=  1, DS
*SLIT_NAME	=  2, SS
*SLIT_NAME	=  3, RS
*COUNTER	=  SC-70, 0
*POS_FORMAT	=  0
*SCAN_AXIS	=  2theta/theta
*MEAS_MODE	=  Continuous Scanning
*TARGET		=  29
*XRAY_CHAR	=  K-ALPHA
*WAVE_LENGTH1	=  1.54059
*WAVE_LENGTH2	=  1.54441
*THICKNESS	=  0, 0.000000
*MU		=  0, 0.000000
*SCAN_MODE	=  2theta/theta
*SPEED_DIM	=  sec./step
*XUNIT		=  deg.
*YUNIT		=  counts
*SCALE_MODE	=  1
*REP_COUNT	=  0
*SE_COUNT	=  0
*STD_MATERIAL	=  Unknown, Unknown, 0.000000, 0.000000, 0.000000, 0.000000, 0.000000, 0.000000
*LATT_CONS	=  0, Unknown, Unknown, 0.000000, 0.000000, 0.000000, 0.000000, 0.000000, 0.000000
*SEC_COUNT	=  1
*TSPEC_SIZE	=  0
*EXTRA_SIZE	=  0
*MEMO		=   

*BEGIN
*GROUP		=  0
*START		=  2.01
*STOP		=  69.99
*STEP		=  0.02
*OFFSET		=  0.000000
*SPEED		=  0.6
*SLIT_SPEC	=  0, 10.0mm, 10, 0.000000
*SLIT_SPEC	=  1, 1.250deg, 1.25, 0.000000
*SLIT_SPEC	=  2, 13.0mm(Open), 13, 0.000000
*SLIT_SPEC	=  3, 13.0mm, 13, 0.000000
*KV		=  40
*MA		=  15
*LOW		=  0.000000
*HIGH		=  0.000000
*CTEMPER	=  0, 0.000000
*CTEMPER	=  1, 0.000000
*CTEMPER	=  2, 0.000000
*PAREX		=  0, 0.000000
*PAREX		=  1, 0.000000
*PAREX		=  2, 0.000000
*PAREX		=  3, 0.000000
*PAREX		=  4, 0.000000
*PAREX		=  5, 0.000000
*PAREX		=  6, 0.000000
*PAREX		=  7, 0.000000
*PAREX		=  8, 0.000000
*PAREX		=  9, 0.000000
*PAREX		=  10, 0.000000
*PAREX		=  11, 0.000000
*PAREX		=  12, 0.000000
*PAREX		=  13, 0.000000
*PAREX		=  14, 0.000000
*PAREX		=  15, 0.000000
*FULL_SCALE	=  2118
*INDEX		=  0, 0, 0
*COUNT		=  3400
68, 82, 94, 90
88, 83, 86, 79
91, 81, 75, 83
88, 94, 95, 85
84, 95, 95, 80
75, 82, 76, 81
85, 82, 84, 83
81, 84, 76, 75
82, 87, 80, 77
82, 74, 79, 78
81, 78, 82, 81
85, 93, 89, 89
85, 76, 71, 74
78, 70, 64, 72
74, 74, 90, 91
85, 90, 82, 79
80, 75, 71, 80
97, 92, 86, 95
90, 90, 83, 86
90, 90, 83, 91
95, 92, 95, 100
103, 105, 99, 97
99, 106, 107, 98
90, 93, 101, 100
97, 109, 117, 112
94, 97, 104, 115
107, 121, 133, 110
101, 117, 117, 105
112, 134, 129, 120
116, 130, 133, 132
133, 134, 134, 122
128, 138, 141, 142
134, 128, 125, 132
134, 124, 137, 135
134, 135, 139, 146
133, 123, 131, 138
139, 140, 133, 148
148, 129, 139, 147
146, 139, 150, 155
153, 159, 164, 162
156, 141, 136, 149
148, 145, 163, 161
166, 177, 169, 158
158, 169, 175, 185
191, 179, 169, 165
167, 168, 178, 189
194, 188, 179, 172
171, 179, 185, 184
185, 188, 194, 186
185, 184, 185, 200
209, 196, 185, 199
194, 193, 213, 212
209, 216, 205, 204
208, 211, 208, 199
209, 207, 206, 210
203, 218, 215, 198
209, 215, 220, 223
219, 219, 217, 235
235, 225, 222, 217
223, 232, 238, 228
233, 232, 232, 242
247, 242, 249, 270
256, 245, 247, 255
263, 235, 235, 259
251, 248, 277, 283
257, 267, 262, 244
253, 276, 277, 269
274, 257, 255, 275
283, 287, 297, 278
261, 266, 274, 289
294, 278, 288, 313
306, 306, 296, 283
287, 274, 307, 315
285, 293, 281, 279
309, 330, 307, 302
299, 293, 308, 307
302, 312, 320, 313
299, 304, 314, 309
304, 315, 299, 297
313, 313, 307, 315
313, 303, 308, 322
319, 322, 312, 322
336, 323, 344, 347
329, 334, 345, 341
336, 331, 327, 330
333, 344, 329, 318
331, 344, 342, 341
343, 350, 361, 356
359, 363, 388, 380
344, 356, 361, 362
351, 359, 378, 377
376, 369, 332, 354
375, 362, 380, 376
376, 363, 354, 383
408, 398, 365, 347
320, 342, 377, 389
382, 387, 371, 395
404, 367, 387, 411
385, 376, 377, 378
386, 373, 366, 392
425, 396, 382, 386
380, 391, 422, 417
407, 425, 395, 398
423, 408, 390, 394
412, 420, 430, 414
380, 394, 420, 411
414, 407, 435, 441
433, 412, 411, 414
430, 442, 429, 438
435, 448, 460, 426
431, 439, 444, 443
418, 438, 471, 455
439, 457, 448, 425
441, 480, 481, 476
460, 452, 491, 472
450, 468, 480, 473
464, 457, 477, 483
480, 478, 471, 458
483, 493, 477, 479
485, 503, 462, 448
480, 498, 477, 461
457, 458, 443, 462
483, 491, 488, 485
497, 479, 476, 489
487, 505, 524, 544
551, 520, 491, 490
493, 487, 500, 492
489, 484, 492, 511
505, 501, 474, 498
540, 505, 535, 569
530, 491, 533, 555
514, 511, 527, 557
564, 548, 561, 576
532, 555, 547, 520
516, 520, 523, 548
522, 536, 555, 529
539, 583, 565, 580
562, 549, 564, 527
512, 537, 544, 568
539, 562, 544, 539
536, 559, 572, 581
564, 562, 568, 568
599, 555, 569, 592
598, 593, 580, 571
601, 577, 611, 608
606, 573, 563, 571
585, 588, 585, 587
598, 596, 610, 595
596, 625, 581, 564
577, 569, 624, 615
657, 593, 617, 586
604, 619, 663, 616
623, 615, 616, 597
616, 600, 618, 635
625, 634, 639, 642
648, 612, 627, 605
610, 644, 649, 643
648, 631, 625, 656
637, 676, 652, 634
644, 614, 611, 642
636, 641, 664, 654
634, 690, 638, 680
654, 678, 646, 634
653, 697, 654, 651
662, 645, 659, 649
631, 697, 660, 666
650, 680, 686, 687
692, 668, 683, 697
695, 699, 704, 675
674, 715, 664, 715
689, 693, 700, 702
701, 717, 698, 666
734, 716, 684, 658
731, 680, 713, 677
714, 703, 688, 681
724, 715, 729, 690
674, 701, 695, 737
712, 691, 681, 706
708, 719, 709, 719
728, 722, 739, 695
741, 745, 692, 726
742, 767, 720, 727
723, 732, 778, 744
724, 743, 760, 700
736, 746, 741, 741
773, 766, 731, 749
736, 793, 759, 737
754, 742, 775, 769
741, 753, 747, 754
770, 716, 752, 785
748, 791, 808, 756
729, 813, 843, 791
755, 749, 745, 796
782, 767, 792, 772
744, 777, 772, 797
783, 844, 800, 781
781, 729, 783, 801
793, 774, 763, 843
767, 756, 734, 788
781, 787, 841, 890
803, 809, 777, 830
805, 779, 855, 779
774, 855, 817, 790
810, 844, 813, 835
772, 814, 781, 825
815, 858, 795, 820
824, 806, 816, 794
811, 836, 862, 794
846, 822, 821, 762
825, 811, 829, 839
781, 796, 800, 803
841, 846, 821, 789
800, 871, 882, 832
805, 863, 839, 805
846, 851, 835, 804
832, 862, 859, 823
872, 819, 844, 799
812, 845, 775, 811
878, 852, 864, 806
768, 827, 819, 824
834, 832, 879, 861
759, 867, 854, 828
821, 830, 849, 808
857, 889, 911, 858
787, 874, 832, 797
817, 839, 893, 874
833, 861, 844, 825
793, 864, 830, 818
816, 790, 831, 856
833, 836, 883, 829
829, 839, 837, 835
838, 846, 823, 869
828, 833, 888, 868
865, 843, 829, 854
809, 819, 839, 910
837, 826, 798, 848
835, 849, 893, 888
831, 827, 865, 872
867, 835, 850, 826
828, 818, 899, 857
803, 850, 850, 836
865, 846, 855, 856
874, 823, 850, 855
792, 877, 819, 816
850, 834, 819, 805
837, 813, 848, 910
861, 821, 866, 859
850, 832, 825, 845
854, 861, 819, 901
850, 811, 852, 903
885, 891, 837, 818
890, 835, 826, 844
861, 889, 893, 853
849, 866, 860, 851
856, 895, 886, 893
875, 872, 826, 873
875, 843, 871, 875
852, 864, 882, 872
843, 816, 841, 844
828, 886, 859, 873
887, 861, 862, 898
886, 889, 874, 854
887, 846, 890, 867
907, 862, 812, 851
878, 860, 892, 888
885, 890, 880, 858
877, 851, 841, 885
849, 869, 882, 857
880, 853, 837, 842
899, 889, 822, 870
859, 843, 847, 844
825, 853, 809, 865
889, 871, 859, 850
847, 842, 878, 867
895, 919, 905, 863
874, 885, 932, 873
891, 881, 896, 884
902, 931, 939, 973
991, 977, 983, 1031
1099, 1065, 1075, 1079
1093, 1073, 1023, 981
931, 907, 966, 939
942, 927, 880, 902
928, 885, 881, 876
875, 920, 872, 861
873, 858, 905, 877
866, 854, 910, 866
859, 865, 854, 846
878, 863, 836, 863
882, 893, 871, 893
871, 853, 864, 864
863, 862, 869, 870
855, 884, 876, 875
858, 867, 900, 878
839, 845, 889, 877
859, 869, 894, 895
866, 886, 850, 862
863, 864, 838, 857
851, 900, 877, 868
852, 847, 851, 845
862, 874, 871, 887
891, 815, 839, 887
902, 870, 872, 865
870, 890, 900, 885
856, 893, 891, 872
891, 873, 886, 868
885, 878, 891, 869
828, 824, 842, 867
883, 893, 882, 887
869, 882, 944, 966
958, 974, 971, 992
975, 990, 977, 923
957, 904, 894, 910
910, 889, 867, 867
890, 900, 882, 877
878, 878, 866, 897
891, 880, 861, 887
882, 872, 873, 874
864, 892, 896, 876
853, 870, 857, 870
886, 877, 860, 874
871, 899, 894, 863
887, 883, 871, 871
865, 874, 861, 857
888, 916, 876, 857
909, 920, 916, 894
872, 884, 897, 901
878, 887, 918, 909
873, 844, 870, 916
882, 882, 914, 899
889, 887, 880, 866
874, 896, 908, 903
880, 833, 855, 902
893, 873, 882, 887
903, 919, 885, 885
867, 856, 870, 864
896, 905, 891, 894
872, 882, 906, 918
871, 869, 896, 892
861, 865, 911, 887
855, 863, 830, 835
887, 893, 875, 864
884, 892, 895, 899
892, 903, 895, 857
865, 871, 829, 860
932, 908, 864, 861
874, 873, 864, 885
909, 887, 857, 882
877, 858, 864, 899
905, 884, 899, 870
857, 853, 833, 870
894, 861, 848, 880
913, 913, 909, 904
886, 904, 932, 922
865, 882, 903, 879
878, 864, 850, 875
892, 864, 862, 897
896, 905, 924, 890
863, 874, 904, 895
848, 828, 893, 925
926, 920, 914, 893
890, 914, 905, 910
929, 941, 960, 981
1024, 1026, 1044, 1105
1126, 1180, 1174, 1134
1150, 1113, 1075, 1033
977, 960, 910, 893
928, 928, 898, 891
868, 897, 945, 929
910, 947, 933, 874
863, 876, 920, 893
906, 901, 893, 897
885, 888, 885, 881
865, 895, 901, 879
858, 838, 895, 913
909, 912, 903, 909
922, 916, 898, 863
900, 940, 905, 917
903, 895, 866, 872
927, 944, 885, 905
910, 905, 877, 883
874, 899, 888, 881
901, 904, 892, 911
916, 925, 893, 883
906, 856, 859, 931
887, 878, 886, 929
888, 892, 910, 912
925, 917, 970, 957
976, 978, 991, 1001
978, 1029, 1039, 1068
1113, 1153, 1214, 1295
1371, 1468, 1560, 1628
1691, 1765, 1728, 1646
1653, 1600, 1489, 1424
1332, 1281, 1188, 1137
1107, 1064, 1042, 1009
1019, 953, 979, 952
937, 928, 928, 926
949, 948, 922, 883
892, 902, 908, 928
926, 906, 924, 893
887, 919, 884, 882
897, 875, 942, 911
946, 945, 914, 890
883, 872, 880, 870
858, 872, 887, 889
890, 916, 884, 906
890, 897, 870, 868
888, 923, 889, 947
936, 884, 871, 889
875, 925, 924, 903
844, 895, 880, 937
907, 905, 917, 928
884, 900, 857, 903
888, 901, 923, 923
941, 942, 917, 879
917, 898, 917, 909
932, 880, 913, 947
941, 933, 956, 939
914, 941, 906, 933
956, 951, 966, 1013
1037, 1051, 1114, 1133
1222, 1272, 1309, 1426
1430, 1412, 1420, 1328
1341, 1274, 1226, 1171
1062, 1068, 1048, 990
986, 947, 908, 940
920, 927, 913, 907
886, 889, 955, 888
836, 914, 895, 882
885, 862, 867, 914
892, 938, 945, 912
871, 923, 904, 917
884, 881, 910, 922
885, 875, 920, 866
878, 894, 924, 849
860, 916, 876, 875
857, 886, 862, 884
893, 913, 941, 900
915, 902, 875, 882
857, 925, 913, 873
920, 863, 886, 891
920, 930, 883, 880
888, 912, 852, 830
887, 870, 904, 904
873, 883, 923, 899
904, 898, 886, 888
913, 956, 930, 930
878, 871, 951, 925
875, 946, 882, 839
884, 851, 857, 916
929, 937, 923, 875
895, 896, 856, 893
874, 894, 920, 909
896, 866, 903, 889
882, 887, 908, 897
911, 920, 958, 942
883, 889, 888, 918
890, 933, 932, 925
879, 924, 899, 878
890, 921, 929, 876
872, 930, 883, 850
884, 903, 918, 906
849, 921, 898, 888
909, 864, 868, 893
894, 898, 902, 859
914, 903, 917, 890
898, 912, 866, 905
890, 867, 926, 923
938, 920, 892, 941
905, 950, 944, 900
951, 912, 938, 877
948, 935, 925, 872
928, 941, 896, 875
908, 905, 949, 902
903, 854, 860, 935
869, 858, 933, 878
893, 841, 908, 967
899, 875, 871, 851
930, 898, 939, 910
876, 903, 939, 914
895, 898, 860, 901
910, 904, 942, 867
909, 915, 913, 935
939, 875, 921, 912
937, 889, 932, 923
914, 939, 927, 959
949, 1014, 1030, 1032
1008, 1078, 1028, 1008
1111, 1022, 1053, 1045
1008, 1016, 992, 1000
1010, 921, 953, 1001
886, 944, 913, 915
930, 963, 912, 950
1001, 856, 902, 914
918, 933, 910, 898
910, 927, 906, 875
916, 887, 867, 925
883, 897, 888, 875
919, 873, 911, 887
857, 882, 890, 918
864, 884, 911, 888
913, 886, 899, 924
925, 927, 853, 877
967, 920, 907, 880
921, 883, 916, 956
880, 921, 906, 910
873, 908, 913, 834
918, 871, 911, 905
913, 904, 879, 850
887, 872, 916, 873
894, 949, 856, 946
902, 924, 911, 894
896, 907, 947, 895
874, 902, 882, 910
881, 889, 908, 902
901, 907, 857, 898
920, 872, 861, 901
920, 911, 842, 870
924, 932, 902, 892
950, 914, 880, 936
944, 907, 926, 931
936, 926, 900, 884
897, 948, 942, 928
908, 952, 880, 886
900, 889, 890, 894
955, 918, 903, 900
943, 912, 889, 888
854, 878, 904, 886
921, 878, 886, 874
879, 861, 876, 861
904, 911, 896, 887
887, 886, 914, 893
882, 879, 943, 918
948, 931, 886, 875
910, 929, 916, 857
886, 913, 863, 886
920, 911, 891, 897
900, 956, 923, 898
883, 879, 909, 888
915, 963, 949, 889
843, 880, 905, 900
954, 906, 890, 874
915, 954, 883, 880
856, 896, 881, 858
858, 927, 979, 931
879, 893, 913, 911
884, 899, 884, 856
884, 897, 913, 925
886, 884, 854, 894
958, 910, 931, 880
914, 897, 865, 880
901, 885, 907, 932
918, 912, 901, 840
863, 874, 865, 901
950, 895, 863, 851
878, 903, 887, 879
892, 885, 875, 871
944, 957, 948, 928
886, 882, 889, 877
884, 900, 912, 901
885, 868, 880, 907
906, 906, 870, 854
850, 889, 852, 870
871, 918, 900, 870
885, 913, 888, 881
908, 895, 919, 934
911, 898, 883, 910
906, 864, 912, 934
959, 906, 854, 868
851, 819, 864, 844
860, 891, 895, 920
895, 859, 887, 852
876, 884, 879, 899
913, 895, 876, 880
910, 907, 896, 885
895, 877, 897, 934
908, 888, 903, 904
871, 894, 899, 894
880, 913, 890, 902
919, 881, 895, 939
896, 890, 907, 905
875, 886, 872, 901
895, 872, 911, 867
884, 912, 929, 905
896, 897, 886, 890
869, 879, 906, 913
880, 912, 924, 914
932, 909, 897, 879
885, 871, 874, 886
922, 959, 927, 928
917, 944, 947, 936
929, 928, 921, 919
958, 964, 1008, 995
1001, 1010, 1000, 1038
1056, 1100, 1149, 1136
1140, 1146, 1126, 1137
1106, 1053, 1019, 1047
1057, 1028, 990, 975
962, 967, 935, 957
947, 929, 934, 905
884, 915, 920, 909
915, 916, 919, 913
903, 913, 934, 906
893, 886, 938, 948
927, 921, 894, 862
884, 942, 950, 893
890, 923, 910, 904
941, 927, 951, 945
930, 923, 936, 953
934, 935, 942, 941
928, 916, 918, 935
926, 899, 891, 948
957, 926, 934, 924
919, 910, 892, 875
887, 915, 931, 939
920, 914, 963, 964
929, 927, 936, 922
900, 922, 920, 886
898, 887, 941, 948
904, 881, 890, 906
882, 892, 912, 888
856, 889, 944, 888
868, 883, 894, 923
916, 898, 902, 884
892, 910, 888, 892
884, 872, 895, 913
904, 872, 876, 903
906, 909, 883, 881
889, 892, 931, 940
896, 907, 937, 910
900, 907, 913, 932
936, 913, 890, 887
886, 882, 917, 926
910, 880, 850, 884
923, 927, 913, 934
929, 911, 893, 912
944, 926, 902, 881
891, 875, 851, 887
924, 898, 885, 918
908, 884, 896, 912
904, 898, 896, 902
926, 898, 863, 879
903, 914, 942, 959
917, 875, 867, 900
894, 882, 936, 919
902, 966, 963, 919
922, 913, 897, 910
908, 912, 921, 938
976, 947, 943, 965
955, 955, 962, 962
982, 1009, 1030, 1068
1096, 1102, 1130, 1171
1167, 1197, 1244, 1227
1159, 1130, 1167, 1157
1117, 1129, 1087, 1022
998, 1004, 998, 975
972, 963, 915, 917
958, 929, 890, 886
911, 925, 909, 901
934, 951, 940, 927
921, 900, 884, 892
888, 871, 882, 907
907, 915, 940, 906
868, 896, 920, 931
895, 879, 919, 903
906, 926, 927, 907
899, 914, 889, 860
886, 903, 885, 867
868, 903, 910, 880
885, 907, 904, 911
883, 867, 876, 883
915, 899, 879, 873
901, 913, 917, 916
917, 909, 904, 901
895, 887, 873, 894
902, 875, 886, 904
905, 881, 850, 883
921, 914, 871, 889
923, 887, 877, 892
867, 881, 917, 904
897, 909, 916, 871
849, 875, 899, 893
897, 879, 897, 901
886, 880, 900, 940
911, 903, 883, 869
896, 898, 909, 893
892, 919, 885, 852
868, 874, 901, 901
894, 911, 919, 931
938, 928, 905, 904
905, 903, 883, 910
921, 889, 862, 858
884, 906, 890, 871
906, 948, 938, 890
914, 939, 914, 920
912, 917, 929, 952
932, 945, 955, 967
975, 952, 958, 945
924, 966, 968, 974
966, 923, 917, 927
896, 924, 914, 901
924, 925, 903, 913
923, 907, 890, 904
896, 898, 891, 853
867, 926, 943, 942
917, 903, 914, 887
881, 925, 908, 872
879, 903, 927, 879
866, 864, 857, 876
845, 848, 885, 879
894, 920, 893, 883
886, 866, 895, 914
922, 919, 927, 902
885, 883, 892, 917
909, 902, 880, 899
903, 908, 922, 859
874, 891, 883, 921
931, 913, 885, 912
883, 859, 883, 890
881, 889, 904, 900
857, 857, 898, 898
894, 896, 874, 915
897, 897, 921, 904
892, 908, 926, 903
920, 937, 904, 900
902, 891, 902, 912
911, 918, 905, 885
902, 902, 899, 913
927, 916, 892, 908
920, 889, 876, 896
932, 902, 920, 912
908, 915, 916, 938
915, 873, 873, 871
902, 931, 893, 884
858, 878, 863, 854
862, 901, 928, 915
897, 915, 890, 898
862, 858, 876, 913
888, 890, 922, 923
910, 889, 890, 889
878, 874, 909, 937
920, 900, 875, 853
921, 933, 895, 890
885, 910, 919, 901
907, 927, 876, 884
900, 885, 871, 875
937, 897, 856, 913
941, 916, 926, 920
885, 882, 891, 896
912, 904, 879, 909
925, 916, 920, 901
914, 929, 918, 891
905, 926, 916, 909
921, 899, 896, 891
913, 938, 945, 968
978, 941, 975, 1017
1009, 1062, 1071, 1074
1067, 1024, 1007, 1029
1030, 1032, 1052, 1026
986, 985, 960, 934
962, 937, 903, 900
898, 933, 915, 920
894, 889, 880, 890
897, 924, 899, 906
869, 867, 857, 866
903, 931, 880, 897
913, 889, 911, 933
939, 903, 912, 876
828, 874, 901, 905
888, 949, 887, 885
872, 865, 880, 892
912, 952, 941, 879
902, 919, 891, 880
901, 907, 940, 990
982, 976, 950, 976
975, 990, 1009, 1023
1041, 1030, 1047, 1048
1036, 1011, 1004, 1021
1018, 1005, 996, 980
974, 944, 955, 953
949, 918, 933, 924
923, 918, 920, 902
865, 889, 894, 871
933, 933, 920, 917
891, 939, 895, 902
894, 869, 942, 923
901, 875, 879, 898
931, 869, 859, 894
887, 891, 911, 903
878, 902, 912, 872
837, 882, 926, 902
865, 923, 921, 896
877, 854, 887, 870
865, 873, 861, 865
865, 916, 919, 919
845, 860, 888, 889
890, 866, 896, 900
859, 906, 885, 885
925, 918, 873, 919
931, 893, 907, 898
897, 865, 887, 912
920, 890, 904, 883
870, 891, 910, 884
890, 917, 874, 899
888, 893, 876, 884
853, 863, 873, 873
874, 909, 876, 869
883, 889, 858, 902
922, 898, 887, 882
859, 889, 907, 946
912, 880, 874, 918
881, 882, 860, 879
875, 822, 879, 898
858, 900, 906, 926
860, 897, 887, 878
905, 898, 866, 864
893, 892, 924, 856
891, 898, 874, 829
888, 856, 845, 869
870, 863, 908, 919
919, 855, 895, 901
875, 892, 899, 926
901, 870, 913, 941
909, 918, 904, 880
886, 905, 893, 880
889, 919, 883, 900
932, 906, 915, 888
892, 901, 893, 862
856, 864, 900, 957
911, 946, 926, 884
879, 917, 901, 898
911, 879, 851, 863
932, 864, 889, 903
891, 888, 875, 895
875, 876, 849, 850
853, 848, 893, 918
826, 900, 926, 1002
863, 882, 881, 905
882, 871, 860, 868
885, 872, 895, 902
909, 903, 875, 915
881, 911, 867, 855
853, 863, 897, 921
897, 874, 849, 913
925, 885, 900, 927
929, 912, 922, 932
937, 933, 938, 914
893, 869, 901, 911
875, 872, 872, 872
*END

*EOF
