*TYPE		=  Raw
*CLASS		=  ASCII CLASS
*SAMPLE		=  AEFE02
*COMMENT	=   
*FNAME		=  aefe02_Theta_2-Theta.asc
*DATE		=  04-Mar-26 14:34

*GROUP_COUNT	=  1
*GONIO		=  MiniFlex 300/600 +, 150
*ATTACHMENT	=  ASC-6
*ASC		=  0, 0, 0.000000, 0.000000
*FILTER		=  None
*C_MONOCHRO	=  None, 0.000000
*SLIT_NAME	=  0, IHS
*SLIT_NAME	=  1, DS
*SLIT_NAME	=  2, SS
*SLIT_NAME	=  3, RS
*COUNTER	=  SC-70, 0
*POS_FORMAT	=  0
*SCAN_AXIS	=  2theta/theta
*MEAS_MODE	=  Continuous Scanning
*TARGET		=  29
*XRAY_CHAR	=  K-ALPHA
*WAVE_LENGTH1	=  1.54059
*WAVE_LENGTH2	=  1.54441
*THICKNESS	=  0, 0.000000
*MU		=  0, 0.000000
*SCAN_MODE	=  2theta/theta
*SPEED_DIM	=  sec./step
*XUNIT		=  deg.
*YUNIT		=  counts
*SCALE_MODE	=  1
*REP_COUNT	=  0
*SE_COUNT	=  0
*STD_MATERIAL	=  Unknown, Unknown, 0.000000, 0.000000, 0.000000, 0.000000, 0.000000, 0.000000
*LATT_CONS	=  0, Unknown, Unknown, 0.000000, 0.000000, 0.000000, 0.000000, 0.000000, 0.000000
*SEC_COUNT	=  1
*TSPEC_SIZE	=  0
*EXTRA_SIZE	=  0
*MEMO		=   

*BEGIN
*GROUP		=  0
*START		=  2.01
*STOP		=  69.99
*STEP		=  0.02
*OFFSET		=  0.000000
*SPEED		=  0.6
*SLIT_SPEC	=  0, 10.0mm, 10, 0.000000
*SLIT_SPEC	=  1, 1.250deg, 1.25, 0.000000
*SLIT_SPEC	=  2, 13.0mm(Open), 13, 0.000000
*SLIT_SPEC	=  3, 13.0mm, 13, 0.000000
*KV		=  40
*MA		=  15
*LOW		=  0.000000
*HIGH		=  0.000000
*CTEMPER	=  0, 0.000000
*CTEMPER	=  1, 0.000000
*CTEMPER	=  2, 0.000000
*PAREX		=  0, 0.000000
*PAREX		=  1, 0.000000
*PAREX		=  2, 0.000000
*PAREX		=  3, 0.000000
*PAREX		=  4, 0.000000
*PAREX		=  5, 0.000000
*PAREX		=  6, 0.000000
*PAREX		=  7, 0.000000
*PAREX		=  8, 0.000000
*PAREX		=  9, 0.000000
*PAREX		=  10, 0.000000
*PAREX		=  11, 0.000000
*PAREX		=  12, 0.000000
*PAREX		=  13, 0.000000
*PAREX		=  14, 0.000000
*PAREX		=  15, 0.000000
*FULL_SCALE	=  1754.4
*INDEX		=  0, 0, 0
*COUNT		=  3400
116, 114, 126, 142
133, 137, 141, 132
131, 125, 132, 137
136, 135, 141, 135
134, 133, 128, 125
121, 129, 133, 121
108, 137, 139, 122
120, 120, 125, 128
136, 127, 135, 142
138, 141, 135, 127
128, 125, 118, 122
143, 134, 127, 117
124, 116, 113, 124
126, 130, 123, 122
118, 127, 117, 122
139, 124, 149, 156
145, 133, 129, 134
138, 127, 132, 138
130, 128, 134, 133
126, 138, 138, 136
142, 149, 148, 147
145, 143, 151, 158
146, 142, 151, 145
155, 152, 152, 150
156, 155, 149, 159
162, 155, 157, 165
171, 167, 164, 155
156, 153, 163, 170
168, 156, 157, 170
170, 166, 155, 153
155, 163, 168, 165
161, 158, 170, 178
191, 187, 169, 171
171, 169, 185, 185
190, 188, 189, 186
177, 170, 176, 192
185, 184, 192, 180
180, 195, 187, 183
195, 205, 186, 194
193, 185, 187, 195
207, 213, 205, 202
191, 188, 193, 205
200, 195, 210, 210
222, 213, 214, 200
200, 214, 217, 221
207, 213, 202, 209
228, 223, 217, 210
220, 217, 224, 244
240, 231, 230, 237
242, 236, 240, 248
253, 237, 224, 237
251, 244, 225, 231
236, 238, 237, 231
238, 238, 249, 256
249, 246, 253, 279
259, 236, 256, 273
251, 250, 270, 264
268, 249, 246, 271
270, 253, 253, 251
256, 281, 284, 273
266, 269, 277, 271
279, 286, 267, 270
276, 283, 291, 285
289, 295, 292, 276
286, 284, 277, 283
273, 290, 301, 294
292, 312, 335, 312
297, 297, 286, 295
292, 308, 330, 301
299, 326, 320, 298
300, 321, 308, 298
320, 332, 328, 334
340, 344, 328, 317
315, 316, 326, 317
301, 320, 319, 314
317, 334, 350, 330
326, 338, 327, 338
343, 340, 343, 341
342, 335, 353, 354
337, 327, 323, 330
337, 344, 346, 357
357, 340, 314, 300
306, 324, 338, 323
313, 325, 327, 334
350, 358, 369, 356
339, 361, 365, 352
334, 333, 333, 338
346, 351, 360, 356
371, 377, 358, 365
377, 372, 374, 363
364, 362, 347, 339
351, 367, 363, 354
339, 345, 363, 359
375, 394, 397, 381
358, 395, 379, 363
377, 367, 379, 401
374, 358, 369, 381
375, 394, 386, 392
415, 383, 372, 390
378, 380, 402, 384
381, 369, 370, 395
410, 407, 379, 375
384, 403, 395, 386
388, 379, 391, 397
385, 411, 411, 396
409, 398, 412, 414
401, 380, 375, 404
419, 404, 395, 408
417, 409, 403, 417
410, 421, 416, 418
439, 433, 414, 439
447, 415, 388, 419
417, 422, 428, 425
408, 411, 420, 425
409, 448, 463, 458
448, 421, 446, 408
426, 432, 406, 430
452, 437, 441, 448
460, 431, 433, 425
451, 447, 435, 432
438, 428, 411, 437
461, 457, 449, 448
459, 466, 480, 482
474, 468, 470, 449
452, 483, 463, 447
458, 445, 428, 456
477, 512, 468, 459
463, 468, 474, 454
471, 490, 519, 497
469, 458, 450, 461
473, 487, 478, 504
500, 482, 477, 509
505, 502, 507, 476
493, 477, 465, 484
478, 480, 506, 485
476, 471, 508, 526
496, 489, 500, 484
484, 485, 484, 468
487, 498, 492, 506
513, 514, 508, 515
483, 501, 491, 514
499, 489, 476, 499
492, 496, 521, 513
488, 511, 500, 514
496, 489, 487, 480
512, 497, 504, 508
493, 495, 524, 534
513, 543, 559, 534
507, 529, 505, 513
523, 542, 507, 489
497, 494, 503, 500
480, 520, 520, 509
510, 544, 506, 530
551, 550, 522, 552
545, 539, 520, 505
498, 502, 519, 545
491, 508, 574, 554
520, 509, 503, 522
539, 522, 539, 529
503, 525, 549, 526
521, 536, 524, 557
548, 519, 515, 526
538, 528, 540, 533
521, 489, 516, 543
531, 539, 518, 524
545, 552, 523, 538
526, 547, 530, 545
564, 571, 546, 545
573, 553, 544, 533
541, 544, 550, 538
541, 537, 545, 522
533, 576, 573, 548
571, 546, 549, 572
526, 541, 489, 531
546, 544, 567, 574
537, 535, 512, 549
612, 544, 526, 543
570, 592, 559, 528
542, 510, 518, 556
582, 560, 541, 558
583, 610, 615, 576
562, 567, 593, 586
578, 547, 559, 572
571, 581, 543, 557
577, 590, 603, 568
579, 597, 576, 581
583, 547, 623, 543
559, 573, 549, 594
597, 623, 625, 558
558, 617, 562, 580
610, 609, 588, 607
616, 564, 569, 575
592, 575, 578, 590
601, 538, 610, 640
621, 621, 589, 571
590, 600, 604, 569
603, 591, 619, 586
574, 574, 589, 629
598, 577, 621, 597
590, 613, 619, 654
574, 600, 600, 678
671, 555, 577, 628
597, 556, 661, 606
629, 633, 691, 670
653, 705, 668, 624
640, 635, 637, 662
580, 634, 635, 609
610, 608, 607, 620
579, 621, 563, 607
613, 629, 625, 584
604, 605, 608, 618
606, 640, 609, 619
627, 630, 662, 622
593, 660, 614, 628
609, 600, 604, 605
602, 633, 561, 628
641, 648, 597, 626
627, 621, 577, 625
660, 602, 600, 593
594, 620, 624, 620
594, 596, 667, 599
613, 601, 663, 623
576, 639, 627, 658
686, 641, 609, 603
563, 578, 633, 576
642, 617, 641, 621
609, 590, 578, 614
545, 622, 626, 600
631, 624, 612, 653
624, 650, 606, 599
627, 657, 626, 613
623, 650, 633, 607
602, 624, 635, 637
647, 640, 622, 632
630, 652, 610, 624
600, 641, 641, 586
648, 638, 608, 617
610, 628, 588, 654
671, 646, 622, 647
638, 611, 607, 650
639, 655, 690, 649
642, 615, 632, 627
600, 601, 626, 635
597, 634, 659, 606
619, 595, 624, 607
655, 699, 639, 658
642, 666, 664, 630
636, 667, 611, 605
633, 651, 638, 614
644, 651, 641, 627
642, 617, 626, 598
631, 601, 635, 619
581, 589, 649, 606
625, 630, 694, 643
636, 656, 669, 637
634, 634, 648, 653
638, 672, 650, 652
635, 634, 654, 629
666, 635, 631, 641
633, 628, 623, 646
638, 680, 653, 645
676, 637, 644, 677
652, 642, 621, 645
621, 669, 688, 667
636, 637, 660, 666
636, 657, 635, 635
637, 681, 685, 646
597, 626, 639, 662
645, 643, 630, 672
634, 605, 685, 655
626, 640, 651, 658
625, 649, 645, 658
631, 607, 621, 649
642, 657, 649, 656
643, 610, 649, 634
631, 655, 673, 696
659, 638, 658, 659
656, 647, 665, 664
676, 648, 646, 651
631, 674, 651, 631
634, 635, 656, 671
657, 665, 652, 630
630, 628, 634, 650
669, 647, 646, 670
630, 631, 677, 653
654, 669, 638, 670
668, 661, 625, 647
691, 679, 662, 674
620, 609, 627, 636
641, 665, 655, 642
640, 654, 676, 667
637, 655, 663, 659
653, 631, 636, 648
611, 634, 680, 647
674, 647, 649, 647
643, 656, 679, 651
668, 646, 648, 610
608, 667, 662, 640
641, 646, 648, 667
655, 629, 666, 651
647, 658, 649, 640
661, 654, 668, 644
645, 679, 684, 697
692, 660, 676, 657
643, 659, 658, 656
683, 676, 632, 645
640, 672, 684, 678
632, 660, 672, 659
655, 689, 650, 659
691, 683, 653, 667
654, 642, 634, 649
660, 645, 649, 651
681, 686, 661, 627
644, 679, 652, 629
643, 655, 676, 648
622, 627, 639, 654
652, 655, 649, 658
670, 661, 647, 644
647, 685, 660, 642
652, 654, 679, 688
647, 644, 660, 685
673, 652, 646, 670
650, 635, 643, 654
664, 675, 664, 652
632, 654, 663, 673
667, 650, 659, 649
635, 631, 643, 662
691, 686, 678, 656
648, 647, 672, 670
649, 648, 676, 653
653, 701, 685, 653
645, 672, 683, 689
686, 667, 655, 630
629, 644, 660, 674
677, 682, 665, 687
708, 682, 661, 657
685, 697, 670, 657
650, 646, 649, 646
643, 659, 677, 663
645, 651, 672, 660
661, 657, 657, 678
682, 682, 663, 649
633, 670, 683, 649
681, 675, 666, 667
667, 691, 654, 634
654, 670, 689, 700
682, 681, 716, 695
687, 695, 687, 677
666, 685, 706, 713
698, 690, 706, 744
788, 808, 807, 840
864, 855, 873, 874
865, 855, 819, 803
788, 750, 737, 716
696, 679, 674, 654
684, 708, 706, 728
707, 687, 672, 682
689, 679, 659, 674
697, 687, 651, 650
685, 678, 659, 658
649, 652, 681, 691
668, 672, 675, 668
692, 677, 648, 656
660, 637, 678, 695
662, 654, 652, 646
667, 640, 627, 692
671, 640, 646, 655
691, 671, 648, 671
712, 694, 680, 679
674, 657, 655, 666
649, 649, 644, 650
651, 678, 675, 683
687, 660, 673, 696
689, 657, 657, 650
645, 646, 677, 669
659, 667, 677, 687
673, 685, 720, 707
663, 665, 681, 691
690, 695, 711, 693
670, 666, 697, 679
643, 652, 660, 669
688, 688, 676, 675
665, 674, 657, 690
700, 673, 687, 677
679, 660, 683, 685
684, 673, 642, 654
649, 678, 696, 670
660, 662, 703, 683
672, 648, 678, 681
655, 662, 653, 661
678, 680, 693, 673
684, 685, 703, 680
655, 672, 694, 696
650, 665, 696, 687
708, 679, 637, 632
638, 679, 681, 694
685, 644, 658, 706
708, 670, 689, 677
649, 678, 691, 703
710, 681, 708, 680
696, 663, 676, 698
708, 694, 721, 709
674, 657, 667, 693
704, 663, 699, 697
685, 699, 687, 659
682, 675, 672, 698
698, 681, 668, 666
712, 686, 674, 673
756, 698, 673, 677
657, 692, 715, 695
721, 698, 715, 657
695, 713, 728, 734
725, 725, 768, 726
719, 734, 763, 738
750, 768, 806, 793
798, 803, 848, 842
884, 889, 946, 993
1084, 1150, 1240, 1327
1387, 1462, 1427, 1388
1386, 1266, 1168, 1164
1034, 974, 940, 965
890, 861, 826, 864
835, 801, 774, 778
768, 770, 756, 767
779, 752, 734, 704
716, 710, 675, 718
708, 749, 692, 689
664, 704, 691, 687
678, 724, 706, 694
703, 706, 724, 678
702, 712, 691, 661
720, 701, 667, 685
709, 701, 667, 652
689, 730, 697, 693
732, 729, 728, 720
683, 716, 734, 691
679, 684, 685, 689
733, 734, 703, 676
702, 736, 717, 739
768, 747, 710, 720
730, 739, 756, 730
717, 727, 685, 740
740, 721, 703, 684
638, 707, 666, 699
680, 690, 729, 690
690, 693, 742, 680
674, 694, 720, 723
722, 704, 714, 714
714, 707, 667, 676
690, 706, 701, 673
714, 725, 695, 701
680, 732, 669, 708
674, 711, 693, 691
700, 669, 718, 667
679, 715, 696, 736
696, 673, 679, 719
679, 676, 702, 692
686, 708, 751, 698
704, 724, 705, 691
719, 739, 687, 694
693, 697, 726, 687
675, 701, 682, 674
696, 704, 657, 690
688, 711, 762, 673
682, 746, 671, 703
698, 670, 724, 680
689, 707, 702, 687
670, 721, 649, 723
682, 720, 713, 705
688, 645, 715, 706
691, 685, 721, 674
683, 697, 700, 702
698, 707, 709, 697
702, 712, 654, 734
748, 687, 702, 736
744, 697, 677, 691
700, 667, 682, 730
689, 697, 686, 685
696, 720, 658, 705
728, 695, 798, 679
701, 714, 729, 753
707, 728, 720, 712
745, 724, 679, 652
687, 742, 701, 676
706, 679, 723, 711
725, 741, 697, 679
710, 693, 651, 695
700, 737, 688, 691
721, 672, 636, 727
752, 686, 672, 709
689, 695, 717, 748
702, 749, 710, 694
717, 737, 742, 695
704, 717, 731, 715
682, 677, 715, 716
707, 713, 706, 685
720, 708, 710, 701
720, 743, 691, 736
731, 715, 717, 721
743, 729, 709, 686
713, 702, 751, 686
712, 686, 719, 666
713, 682, 686, 728
731, 735, 729, 748
787, 661, 711, 685
696, 669, 724, 716
716, 757, 704, 674
704, 738, 733, 714
748, 714, 741, 738
777, 692, 754, 733
703, 733, 713, 769
834, 703, 750, 785
782, 799, 845, 819
829, 880, 835, 860
866, 811, 833, 806
803, 774, 828, 756
786, 733, 746, 734
748, 779, 777, 726
762, 717, 730, 725
732, 748, 767, 696
757, 744, 750, 729
721, 700, 734, 700
737, 748, 719, 703
712, 684, 702, 721
727, 737, 721, 714
721, 735, 736, 751
704, 758, 709, 733
737, 726, 758, 714
711, 698, 693, 704
723, 718, 762, 749
731, 680, 721, 745
729, 717, 653, 702
717, 671, 713, 759
731, 716, 691, 694
707, 695, 718, 697
703, 716, 684, 703
697, 670, 726, 754
753, 747, 740, 737
704, 731, 773, 722
730, 706, 719, 702
714, 754, 751, 711
730, 723, 687, 722
720, 714, 722, 704
679, 662, 677, 683
713, 732, 740, 733
729, 730, 717, 725
680, 714, 742, 717
680, 680, 706, 692
728, 714, 693, 654
718, 720, 752, 790
737, 743, 728, 696
696, 730, 717, 739
717, 711, 713, 727
696, 701, 692, 682
699, 724, 724, 694
749, 715, 725, 707
707, 694, 711, 689
718, 696, 736, 703
724, 729, 717, 719
712, 735, 732, 711
700, 720, 719, 716
749, 742, 751, 734
716, 726, 723, 687
702, 698, 684, 735
759, 734, 705, 717
749, 718, 735, 765
765, 739, 754, 734
716, 730, 698, 719
757, 732, 683, 691
693, 656, 701, 717
706, 700, 716, 699
719, 705, 734, 704
681, 675, 727, 738
732, 699, 718, 721
699, 704, 708, 707
736, 729, 714, 711
699, 714, 710, 738
736, 734, 711, 752
745, 726, 704, 719
760, 761, 758, 735
717, 728, 728, 720
738, 709, 724, 730
719, 728, 731, 727
723, 731, 736, 759
768, 762, 727, 706
697, 709, 751, 736
704, 682, 725, 732
707, 728, 737, 723
727, 734, 757, 764
740, 751, 747, 738
739, 744, 747, 727
738, 726, 693, 698
722, 732, 710, 692
703, 737, 719, 735
723, 727, 738, 732
722, 755, 726, 737
739, 727, 722, 739
738, 728, 721, 729
729, 699, 716, 732
738, 740, 724, 709
744, 723, 711, 712
713, 720, 705, 701
715, 728, 707, 727
705, 724, 748, 766
763, 737, 733, 684
715, 722, 705, 736
735, 704, 698, 718
704, 721, 731, 756
774, 732, 698, 718
735, 694, 696, 753
753, 693, 676, 703
727, 720, 708, 722
719, 728, 750, 746
745, 715, 728, 739
702, 702, 754, 749
749, 772, 733, 718
724, 720, 693, 703
723, 728, 722, 732
744, 745, 724, 717
732, 736, 769, 743
704, 725, 756, 751
734, 692, 705, 741
739, 736, 733, 730
734, 736, 720, 720
712, 694, 703, 761
758, 691, 680, 755
797, 762, 720, 709
746, 742, 706, 704
728, 757, 747, 714
740, 773, 738, 720
713, 678, 705, 736
736, 747, 742, 763
764, 723, 716, 720
720, 738, 723, 707
716, 737, 741, 716
714, 702, 704, 736
755, 770, 753, 726
725, 693, 707, 729
742, 737, 703, 745
757, 754, 771, 768
743, 760, 771, 748
747, 750, 778, 765
764, 790, 795, 795
776, 792, 786, 786
786, 759, 768, 774
756, 745, 760, 753
737, 744, 744, 740
742, 717, 714, 723
732, 733, 723, 741
741, 763, 770, 749
759, 764, 742, 735
747, 722, 730, 754
749, 735, 724, 747
751, 745, 741, 719
684, 692, 725, 723
717, 717, 719, 725
735, 728, 709, 697
708, 731, 750, 757
735, 730, 746, 726
729, 742, 726, 710
747, 760, 722, 722
720, 712, 730, 753
730, 726, 719, 719
729, 723, 741, 742
695, 719, 720, 725
754, 735, 735, 731
735, 726, 702, 739
734, 733, 757, 737
734, 735, 712, 703
731, 750, 760, 767
716, 695, 757, 762
748, 744, 731, 740
714, 723, 733, 727
759, 758, 746, 749
750, 738, 758, 747
726, 742, 738, 739
734, 737, 734, 733
764, 742, 738, 751
735, 743, 736, 713
729, 744, 765, 765
729, 729, 764, 747
734, 745, 732, 740
749, 738, 745, 755
782, 761, 739, 777
763, 759, 810, 831
809, 827, 832, 834
840, 836, 866, 905
900, 859, 879, 903
876, 847, 838, 813
836, 852, 823, 800
801, 803, 779, 796
784, 779, 783, 789
770, 741, 764, 775
747, 757, 778, 772
756, 754, 750, 723
729, 755, 763, 720
727, 731, 719, 732
734, 737, 750, 762
766, 767, 735, 722
709, 708, 687, 678
739, 788, 752, 752
761, 734, 694, 726
738, 720, 725, 737
737, 715, 733, 747
725, 726, 731, 725
737, 754, 736, 737
709, 686, 712, 717
734, 736, 703, 722
715, 714, 703, 720
729, 718, 740, 779
776, 739, 744, 748
729, 724, 728, 727
737, 734, 738, 710
728, 768, 745, 702
721, 747, 731, 744
748, 727, 708, 724
732, 731, 723, 705
720, 734, 740, 680
685, 737, 775, 765
742, 721, 705, 707
734, 723, 703, 729
756, 739, 725, 719
732, 735, 737, 768
755, 708, 710, 727
728, 720, 726, 723
716, 730, 736, 714
727, 721, 733, 712
713, 739, 760, 745
744, 710, 724, 738
739, 756, 739, 726
757, 727, 725, 751
732, 717, 741, 776
763, 730, 732, 738
726, 746, 726, 752
769, 734, 713, 757
769, 737, 722, 705
746, 781, 754, 729
719, 727, 751, 723
720, 722, 739, 772
786, 770, 723, 740
727, 719, 767, 748
717, 745, 736, 704
718, 745, 744, 732
725, 733, 757, 734
694, 709, 708, 717
736, 736, 768, 747
734, 735, 754, 773
769, 744, 749, 770
772, 744, 738, 746
783, 780, 769, 772
755, 740, 735, 745
740, 763, 797, 762
753, 785, 773, 806
820, 832, 828, 815
829, 843, 822, 822
849, 900, 868, 879
916, 899, 898, 913
924, 901, 892, 905
899, 919, 931, 872
864, 858, 842, 841
815, 809, 794, 787
801, 793, 828, 816
797, 799, 782, 785
794, 787, 773, 791
774, 739, 762, 788
799, 771, 775, 778
761, 770, 725, 764
783, 733, 692, 716
741, 732, 737, 725
765, 752, 721, 717
748, 749, 772, 778
779, 749, 750, 736
750, 739, 722, 723
728, 744, 717, 707
731, 720, 694, 729
743, 743, 743, 758
787, 764, 723, 723
758, 730, 746, 735
703, 708, 767, 730
703, 740, 754, 769
749, 718, 739, 769
747, 741, 712, 732
708, 727, 685, 725
717, 741, 737, 733
741, 716, 737, 744
757, 725, 718, 747
750, 739, 737, 750
718, 733, 734, 775
743, 720, 729, 737
714, 738, 741, 757
745, 717, 664, 745
765, 758, 727, 741
752, 736, 737, 782
754, 789, 755, 719
736, 760, 764, 738
734, 725, 735, 774
782, 775, 737, 719
734, 745, 762, 735
761, 749, 759, 719
727, 757, 776, 742
747, 713, 747, 748
765, 710, 717, 732
754, 772, 736, 709
738, 711, 722, 740
735, 741, 736, 714
731, 739, 759, 738
717, 735, 744, 739
737, 735, 729, 716
720, 696, 688, 767
755, 746, 744, 740
732, 740, 739, 748
765, 748, 724, 693
721, 758, 734, 680
719, 768, 693, 743
707, 718, 752, 737
727, 707, 746, 735
731, 704, 721, 710
738, 728, 752, 774
742, 767, 755, 769
742, 714, 731, 756
767, 730, 706, 752
730, 707, 724, 717
746, 757, 764, 733
752, 728, 704, 756
696, 725, 746, 737
755, 757, 713, 711
715, 694, 756, 722
731, 749, 723, 735
732, 728, 707, 683
718, 703, 748, 741
724, 751, 703, 719
755, 772, 691, 700
722, 724, 786, 735
731, 729, 742, 789
764, 757, 750, 720
752, 748, 732, 750
710, 745, 755, 732
740, 705, 756, 778
734, 740, 730, 739
738, 747, 732, 741
759, 751, 765, 759
767, 723, 740, 794
760, 755, 772, 751
744, 740, 736, 740
756, 689, 779, 771
762, 743, 722, 741
712, 713, 673, 758
748, 756, 712, 703
730, 735, 741, 736
726, 725, 725, 725
*END

*EOF
