*TYPE		=  Raw
*CLASS		=  ASCII CLASS
*SAMPLE		=  Mars Analogue 1
*COMMENT	=   
*FNAME		=  mars_analogue_sample_Theta_2-Theta.asc
*DATE		=  04-Mar-26 15:08

*GROUP_COUNT	=  1
*GONIO		=  MiniFlex 300/600 +, 150
*ATTACHMENT	=  ASC-6
*ASC		=  0, 0, 0.000000, 0.000000
*FILTER		=  None
*C_MONOCHRO	=  None, 0.000000
*SLIT_NAME	=  0, IHS
*SLIT_NAME	=  1, DS
*SLIT_NAME	=  2, SS
*SLIT_NAME	=  3, RS
*COUNTER	=  SC-70, 0
*POS_FORMAT	=  0
*SCAN_AXIS	=  2theta/theta
*MEAS_MODE	=  Continuous Scanning
*TARGET		=  29
*XRAY_CHAR	=  K-ALPHA
*WAVE_LENGTH1	=  1.54059
*WAVE_LENGTH2	=  1.54441
*THICKNESS	=  0, 0.000000
*MU		=  0, 0.000000
*SCAN_MODE	=  2theta/theta
*SPEED_DIM	=  sec./step
*XUNIT		=  deg.
*YUNIT		=  counts
*SCALE_MODE	=  1
*REP_COUNT	=  0
*SE_COUNT	=  0
*STD_MATERIAL	=  Unknown, Unknown, 0.000000, 0.000000, 0.000000, 0.000000, 0.000000, 0.000000
*LATT_CONS	=  0, Unknown, Unknown, 0.000000, 0.000000, 0.000000, 0.000000, 0.000000, 0.000000
*SEC_COUNT	=  1
*TSPEC_SIZE	=  0
*EXTRA_SIZE	=  0
*MEMO		=   

*BEGIN
*GROUP		=  0
*START		=  2.01
*STOP		=  69.99
*STEP		=  0.02
*OFFSET		=  0.000000
*SPEED		=  0.6
*SLIT_SPEC	=  0, 10.0mm, 10, 0.000000
*SLIT_SPEC	=  1, 1.250deg, 1.25, 0.000000
*SLIT_SPEC	=  2, 13.0mm(Open), 13, 0.000000
*SLIT_SPEC	=  3, 13.0mm, 13, 0.000000
*KV		=  40
*MA		=  15
*LOW		=  0.000000
*HIGH		=  0.000000
*CTEMPER	=  0, 0.000000
*CTEMPER	=  1, 0.000000
*CTEMPER	=  2, 0.000000
*PAREX		=  0, 0.000000
*PAREX		=  1, 0.000000
*PAREX		=  2, 0.000000
*PAREX		=  3, 0.000000
*PAREX		=  4, 0.000000
*PAREX		=  5, 0.000000
*PAREX		=  6, 0.000000
*PAREX		=  7, 0.000000
*PAREX		=  8, 0.000000
*PAREX		=  9, 0.000000
*PAREX		=  10, 0.000000
*PAREX		=  11, 0.000000
*PAREX		=  12, 0.000000
*PAREX		=  13, 0.000000
*PAREX		=  14, 0.000000
*PAREX		=  15, 0.000000
*FULL_SCALE	=  151.2
*INDEX		=  0, 0, 0
*COUNT		=  3400
94, 97, 87, 88
95, 97, 96, 90
83, 93, 93, 88
91, 97, 82, 73
79, 85, 92, 92
94, 84, 70, 69
69, 74, 74, 69
73, 75, 70, 65
64, 69, 75, 65
60, 58, 50, 56
65, 64, 65, 70
59, 51, 45, 45
40, 43, 49, 48
43, 45, 43, 52
45, 38, 42, 46
49, 54, 55, 48
44, 40, 41, 38
47, 53, 43, 39
47, 60, 68, 57
48, 42, 42, 41
43, 37, 38, 44
43, 46, 50, 50
56, 57, 53, 47
43, 52, 45, 48
42, 42, 49, 54
53, 43, 40, 46
41, 45, 46, 49
38, 41, 45, 46
41, 46, 45, 45
49, 45, 50, 46
49, 48, 43, 44
45, 44, 41, 42
40, 40, 45, 46
49, 48, 51, 57
49, 41, 41, 38
46, 46, 52, 52
44, 43, 44, 53
53, 49, 46, 39
39, 43, 42, 46
52, 49, 50, 46
45, 41, 42, 49
58, 58, 50, 51
47, 46, 51, 57
62, 58, 55, 47
49, 53, 49, 56
54, 49, 52, 55
54, 60, 62, 62
62, 55, 51, 55
61, 51, 50, 60
69, 66, 64, 67
65, 61, 63, 67
71, 61, 57, 68
63, 69, 71, 59
56, 56, 64, 69
70, 68, 65, 69
64, 62, 69, 76
67, 61, 70, 66
59, 51, 55, 53
51, 60, 66, 61
60, 59, 59, 59
57, 61, 53, 57
64, 62, 62, 67
68, 56, 53, 61
69, 65, 58, 62
64, 61, 56, 57
65, 63, 58, 60
55, 57, 57, 50
56, 64, 59, 55
55, 55, 53, 51
49, 57, 63, 63
62, 58, 60, 51
53, 59, 54, 52
58, 61, 60, 62
55, 55, 56, 54
59, 65, 58, 55
63, 65, 55, 50
54, 59, 63, 55
58, 65, 56, 52
54, 54, 54, 59
58, 58, 68, 69
60, 52, 53, 57
57, 53, 47, 53
49, 50, 57, 62
62, 54, 51, 58
65, 59, 57, 66
62, 46, 44, 43
46, 43, 51, 66
67, 56, 52, 53
60, 58, 61, 55
52, 55, 48, 51
60, 70, 60, 46
49, 55, 56, 56
56, 65, 62, 52
47, 51, 56, 56
57, 54, 53, 57
53, 52, 51, 57
61, 61, 56, 55
56, 52, 50, 49
51, 51, 61, 63
54, 55, 63, 54
55, 58, 56, 57
62, 63, 55, 50
53, 50, 56, 61
60, 58, 64, 59
54, 54, 62, 54
50, 56, 58, 50
58, 59, 60, 58
57, 58, 64, 63
65, 59, 57, 64
60, 55, 61, 53
50, 53, 47, 50
51, 42, 44, 50
51, 54, 58, 55
66, 65, 53, 61
71, 68, 57, 47
52, 59, 68, 70
58, 57, 53, 58
65, 67, 76, 74
80, 80, 90, 71
68, 60, 59, 64
54, 59, 57, 60
58, 63, 63, 54
53, 68, 65, 58
57, 57, 63, 49
62, 71, 55, 61
64, 51, 52, 52
48, 59, 54, 50
57, 57, 50, 42
55, 51, 58, 60
59, 60, 66, 64
56, 55, 60, 52
55, 66, 64, 58
54, 65, 66, 57
60, 58, 62, 64
63, 57, 57, 57
64, 66, 62, 59
50, 49, 52, 61
65, 55, 50, 57
52, 54, 51, 61
46, 45, 55, 55
59, 65, 66, 59
59, 61, 64, 58
58, 57, 53, 57
51, 53, 57, 50
68, 69, 59, 60
57, 62, 61, 63
56, 51, 55, 48
63, 60, 61, 60
65, 63, 47, 46
57, 54, 49, 50
53, 60, 62, 57
54, 75, 66, 59
66, 60, 49, 60
59, 62, 56, 57
64, 57, 63, 61
66, 68, 61, 63
58, 47, 64, 51
54, 66, 70, 58
62, 66, 70, 66
55, 60, 54, 58
50, 58, 51, 56
58, 59, 63, 59
56, 62, 60, 61
73, 66, 61, 74
76, 56, 64, 61
58, 58, 53, 61
58, 51, 61, 57
53, 69, 59, 64
76, 53, 60, 68
63, 63, 66, 47
64, 55, 54, 47
61, 62, 58, 48
60, 57, 61, 61
62, 51, 58, 68
55, 60, 54, 63
67, 51, 60, 56
68, 61, 64, 64
67, 52, 52, 70
61, 61, 49, 70
58, 60, 55, 67
69, 61, 68, 69
66, 77, 60, 67
69, 49, 65, 59
52, 64, 62, 70
58, 61, 66, 65
62, 54, 59, 44
64, 60, 59, 49
58, 73, 66, 54
52, 69, 67, 61
56, 51, 67, 59
50, 46, 62, 70
56, 71, 59, 57
55, 64, 59, 61
62, 66, 60, 54
55, 59, 60, 62
63, 59, 77, 66
64, 52, 57, 51
65, 70, 51, 71
57, 51, 67, 56
66, 59, 64, 80
70, 60, 74, 44
52, 62, 62, 64
63, 53, 54, 52
61, 46, 61, 62
62, 61, 62, 60
46, 69, 66, 56
59, 62, 65, 54
60, 53, 73, 62
58, 61, 65, 67
56, 59, 72, 70
65, 54, 77, 54
70, 56, 67, 77
61, 73, 59, 70
62, 68, 62, 72
70, 65, 66, 53
61, 63, 73, 70
67, 82, 62, 59
60, 71, 60, 63
66, 70, 60, 53
55, 66, 58, 54
59, 57, 63, 63
66, 61, 68, 63
62, 61, 67, 65
72, 70, 55, 52
62, 55, 68, 73
61, 50, 53, 76
65, 54, 50, 58
69, 68, 57, 51
44, 68, 59, 48
69, 67, 75, 65
51, 58, 59, 66
58, 75, 61, 50
63, 71, 69, 65
65, 51, 57, 67
53, 52, 72, 72
67, 58, 47, 53
72, 62, 67, 59
72, 58, 72, 69
65, 59, 63, 78
67, 73, 60, 55
49, 63, 80, 70
63, 71, 71, 74
60, 83, 76, 66
62, 62, 68, 68
51, 57, 60, 75
73, 67, 70, 69
92, 68, 64, 64
71, 65, 68, 77
65, 67, 65, 55
58, 50, 59, 72
47, 59, 68, 49
57, 65, 57, 62
64, 66, 64, 64
57, 59, 65, 65
80, 67, 64, 53
64, 62, 62, 49
50, 62, 66, 70
59, 75, 83, 108
125, 119, 99, 93
89, 75, 70, 57
57, 56, 46, 50
63, 55, 54, 55
61, 62, 66, 68
61, 73, 79, 70
69, 72, 70, 62
58, 74, 72, 69
59, 70, 59, 64
72, 62, 68, 71
73, 53, 67, 70
44, 47, 55, 62
68, 62, 63, 64
62, 61, 76, 67
52, 82, 71, 74
74, 68, 68, 53
55, 66, 67, 61
61, 64, 65, 68
67, 72, 75, 79
72, 70, 91, 109
98, 95, 91, 91
77, 73, 81, 80
82, 78, 62, 74
67, 54, 59, 55
56, 57, 58, 53
56, 63, 62, 57
57, 55, 44, 42
52, 46, 56, 73
59, 51, 55, 70
63, 55, 55, 51
51, 64, 67, 54
49, 54, 46, 46
58, 67, 68, 66
58, 63, 63, 62
65, 67, 68, 62
64, 54, 58, 61
55, 54, 44, 52
59, 49, 43, 53
55, 52, 53, 55
60, 53, 52, 56
54, 48, 51, 59
68, 58, 51, 50
55, 47, 48, 53
55, 58, 61, 58
71, 60, 53, 60
65, 59, 64, 58
54, 69, 60, 64
59, 58, 58, 59
51, 60, 61, 59
64, 55, 46, 60
70, 65, 61, 60
63, 58, 71, 68
62, 67, 65, 56
62, 61, 55, 50
52, 49, 54, 61
68, 67, 63, 57
57, 74, 73, 66
66, 66, 80, 80
69, 64, 82, 97
90, 86, 92, 94
105, 100, 98, 94
96, 98, 101, 109
97, 95, 96, 105
106, 102, 88, 84
99, 96, 95, 110
111, 102, 98, 97
92, 86, 78, 64
53, 59, 64, 66
62, 52, 58, 59
55, 62, 67, 62
69, 65, 60, 60
67, 80, 72, 68
75, 71, 62, 62
64, 52, 55, 58
54, 63, 66, 65
67, 59, 53, 56
56, 61, 74, 75
65, 63, 67, 59
56, 59, 70, 71
63, 61, 61, 60
60, 56, 58, 68
66, 70, 87, 86
80, 82, 88, 84
82, 79, 65, 67
66, 65, 71, 70
61, 62, 66, 65
68, 69, 63, 62
64, 65, 71, 68
58, 59, 73, 69
55, 58, 61, 60
56, 55, 62, 55
56, 65, 63, 67
70, 63, 61, 63
71, 73, 65, 57
50, 51, 55, 55
62, 60, 53, 60
65, 62, 60, 57
55, 58, 62, 62
57, 58, 57, 61
63, 60, 58, 53
55, 59, 57, 56
65, 69, 64, 57
52, 54, 56, 59
64, 62, 58, 52
50, 56, 58, 57
54, 49, 52, 50
51, 56, 57, 63
61, 63, 66, 70
68, 67, 63, 61
66, 63, 63, 66
70, 79, 73, 73
67, 71, 65, 60
67, 66, 67, 66
66, 69, 72, 63
58, 64, 62, 63
61, 56, 60, 69
60, 61, 59, 53
53, 63, 73, 73
66, 64, 61, 64
60, 54, 53, 67
59, 53, 59, 53
58, 56, 58, 63
44, 47, 59, 61
56, 59, 50, 53
51, 57, 62, 56
49, 50, 58, 56
50, 61, 62, 62
64, 63, 60, 59
60, 60, 56, 50
49, 48, 54, 54
58, 67, 53, 63
63, 59, 52, 51
61, 56, 49, 57
58, 54, 47, 60
61, 56, 51, 59
61, 52, 53, 56
44, 56, 57, 59
65, 69, 61, 56
54, 49, 53, 56
56, 58, 59, 59
45, 45, 55, 58
54, 53, 50, 53
52, 46, 54, 55
48, 44, 55, 55
58, 58, 58, 54
49, 60, 62, 61
50, 53, 58, 55
52, 56, 57, 54
52, 58, 57, 55
58, 75, 70, 67
60, 64, 59, 65
64, 64, 60, 59
55, 64, 69, 75
74, 64, 61, 67
69, 71, 72, 64
70, 63, 75, 66
65, 64, 61, 62
71, 80, 81, 78
73, 86, 78, 84
87, 80, 74, 80
92, 82, 83, 99
76, 72, 63, 57
69, 71, 59, 69
57, 59, 70, 56
64, 79, 49, 53
72, 51, 51, 56
56, 39, 57, 49
51, 53, 53, 57
60, 66, 68, 84
84, 61, 64, 66
68, 66, 59, 59
67, 63, 60, 69
58, 59, 53, 51
59, 66, 57, 55
47, 57, 54, 55
56, 52, 57, 70
59, 62, 65, 57
58, 69, 57, 70
63, 65, 60, 63
58, 70, 57, 46
52, 54, 55, 53
58, 54, 58, 55
61, 54, 48, 49
52, 55, 64, 69
58, 48, 60, 46
56, 57, 48, 61
49, 50, 51, 57
51, 60, 45, 46
58, 54, 48, 62
64, 63, 54, 52
53, 57, 60, 57
59, 50, 70, 49
60, 55, 57, 44
53, 62, 54, 45
60, 50, 53, 60
55, 56, 54, 53
64, 63, 51, 52
51, 51, 60, 60
69, 81, 62, 56
73, 55, 67, 64
63, 46, 79, 54
60, 69, 51, 48
66, 61, 52, 66
57, 55, 56, 58
47, 59, 58, 64
74, 95, 88, 119
117, 126, 126, 96
102, 103, 90, 71
78, 76, 95, 87
64, 72, 78, 62
68, 75, 75, 69
67, 68, 63, 49
63, 66, 69, 58
57, 50, 70, 60
56, 60, 53, 50
53, 80, 58, 50
54, 47, 53, 61
60, 64, 54, 55
55, 57, 57, 38
52, 51, 52, 61
52, 64, 46, 54
45, 54, 51, 56
60, 57, 54, 45
40, 62, 51, 42
55, 48, 59, 52
69, 66, 60, 55
59, 50, 48, 67
48, 53, 51, 44
54, 65, 56, 49
69, 62, 57, 47
72, 39, 51, 62
50, 46, 73, 53
65, 76, 54, 50
50, 47, 65, 52
60, 45, 49, 67
52, 54, 59, 54
65, 53, 62, 67
48, 43, 66, 66
59, 64, 54, 55
60, 61, 63, 54
73, 57, 64, 57
59, 53, 57, 63
75, 70, 66, 82
68, 75, 60, 50
66, 66, 62, 67
53, 68, 75, 77
56, 61, 60, 55
67, 72, 82, 67
58, 53, 56, 48
57, 59, 69, 72
75, 67, 64, 60
55, 50, 65, 55
50, 65, 70, 56
59, 62, 60, 47
52, 54, 55, 61
63, 58, 61, 60
57, 63, 56, 65
48, 47, 52, 66
66, 54, 58, 65
63, 51, 59, 58
67, 50, 52, 59
63, 60, 53, 63
63, 59, 70, 63
58, 67, 61, 61
61, 64, 44, 52
54, 57, 59, 59
48, 59, 47, 59
54, 53, 56, 64
57, 44, 57, 53
53, 66, 69, 63
55, 54, 71, 57
64, 61, 60, 64
63, 55, 59, 53
47, 61, 60, 67
49, 40, 59, 53
63, 62, 48, 59
64, 51, 64, 59
55, 62, 54, 67
69, 59, 58, 53
58, 46, 59, 64
61, 52, 67, 69
52, 64, 67, 64
67, 65, 60, 61
62, 56, 51, 65
49, 49, 63, 55
58, 57, 51, 73
65, 57, 69, 64
64, 59, 56, 40
50, 60, 60, 57
55, 54, 60, 52
64, 67, 56, 57
66, 67, 57, 46
51, 48, 61, 64
55, 53, 65, 58
57, 55, 61, 59
68, 48, 47, 53
52, 54, 60, 60
57, 57, 75, 60
57, 63, 65, 53
56, 54, 57, 60
49, 63, 62, 59
62, 67, 70, 55
55, 56, 56, 67
64, 61, 54, 53
60, 64, 63, 58
55, 47, 58, 68
79, 68, 51, 50
73, 63, 64, 59
55, 59, 63, 49
54, 58, 61, 60
54, 60, 74, 61
67, 67, 66, 61
66, 67, 65, 66
59, 63, 62, 58
62, 50, 49, 55
54, 64, 68, 67
64, 54, 57, 62
61, 52, 49, 52
73, 71, 58, 61
71, 58, 56, 59
69, 56, 64, 64
74, 66, 62, 57
57, 57, 66, 68
57, 68, 67, 68
68, 55, 56, 58
60, 58, 59, 58
63, 70, 66, 56
65, 53, 52, 65
67, 48, 64, 66
54, 62, 88, 97
103, 95, 87, 86
82, 72, 76, 77
70, 67, 65, 62
64, 73, 69, 64
68, 69, 62, 53
52, 57, 56, 65
58, 54, 68, 71
57, 56, 62, 66
65, 67, 78, 67
54, 53, 67, 64
63, 68, 66, 66
67, 65, 60, 63
65, 68, 72, 66
64, 65, 65, 66
61, 64, 67, 61
64, 63, 57, 63
54, 60, 68, 63
58, 62, 80, 67
53, 65, 63, 64
58, 58, 67, 67
68, 65, 60, 64
69, 72, 72, 72
65, 54, 58, 66
66, 61, 58, 64
70, 67, 60, 59
72, 67, 70, 61
61, 71, 64, 61
63, 58, 69, 73
76, 72, 58, 66
78, 72, 76, 86
76, 65, 79, 80
70, 74, 72, 75
84, 79, 80, 89
97, 106, 116, 118
104, 102, 102, 94
86, 88, 96, 82
65, 64, 75, 80
79, 79, 67, 56
62, 74, 76, 75
76, 68, 63, 67
74, 66, 62, 70
68, 66, 72, 71
72, 77, 72, 68
63, 58, 67, 64
56, 55, 62, 68
67, 64, 60, 59
64, 68, 66, 58
55, 59, 56, 57
65, 71, 67, 59
67, 79, 81, 73
72, 71, 73, 77
80, 77, 75, 75
74, 68, 66, 71
66, 63, 74, 76
76, 84, 78, 69
64, 64, 65, 59
57, 70, 69, 59
62, 66, 70, 75
73, 66, 60, 59
64, 70, 75, 70
60, 55, 61, 68
65, 60, 57, 53
56, 63, 63, 59
58, 63, 67, 72
70, 64, 65, 56
49, 58, 62, 62
64, 67, 72, 65
60, 57, 56, 62
70, 77, 70, 61
61, 58, 65, 72
59, 51, 51, 60
60, 51, 51, 54
61, 64, 62, 67
71, 66, 65, 63
56, 64, 67, 64
70, 69, 60, 64
64, 58, 53, 60
63, 62, 70, 70
66, 63, 65, 67
64, 58, 55, 58
62, 67, 62, 63
67, 62, 68, 68
54, 60, 67, 71
81, 80, 66, 58
61, 59, 59, 59
65, 70, 66, 68
66, 61, 65, 69
71, 70, 68, 63
57, 62, 64, 67
85, 83, 78, 78
75, 75, 74, 77
72, 66, 72, 66
62, 65, 61, 67
67, 69, 68, 69
69, 73, 68, 59
65, 67, 65, 70
64, 64, 69, 68
65, 66, 67, 67
66, 65, 67, 57
60, 62, 65, 73
68, 64, 62, 61
61, 60, 59, 59
58, 62, 58, 62
70, 82, 79, 59
46, 53, 64, 64
69, 70, 66, 61
65, 66, 68, 66
57, 57, 69, 64
65, 63, 73, 86
79, 73, 72, 72
69, 57, 67, 77
73, 68, 66, 70
72, 70, 62, 60
59, 57, 51, 55
59, 58, 67, 70
64, 67, 70, 58
64, 58, 52, 62
68, 70, 65, 71
63, 55, 69, 66
59, 59, 65, 64
62, 64, 58, 61
72, 75, 70, 66
68, 62, 59, 70
68, 56, 62, 60
57, 57, 56, 63
68, 64, 68, 72
64, 68, 68, 64
54, 64, 70, 61
60, 57, 59, 54
52, 61, 63, 56
68, 75, 64, 64
58, 57, 65, 77
89, 76, 64, 64
63, 69, 73, 65
60, 68, 83, 77
71, 70, 63, 67
57, 56, 62, 60
58, 62, 73, 71
65, 63, 64, 68
75, 67, 58, 64
70, 70, 68, 66
58, 63, 64, 68
72, 64, 61, 65
69, 81, 76, 75
75, 68, 75, 75
76, 80, 72, 71
73, 72, 82, 75
66, 56, 60, 63
68, 74, 75, 76
84, 89, 77, 74
74, 71, 72, 60
64, 78, 69, 64
75, 71, 62, 70
72, 72, 63, 65
60, 66, 76, 70
69, 69, 63, 69
75, 68, 71, 75
68, 67, 69, 76
69, 74, 76, 81
83, 69, 62, 71
72, 75, 68, 75
82, 81, 81, 70
69, 72, 70, 61
65, 75, 76, 78
84, 79, 66, 72
84, 86, 74, 68
71, 81, 76, 77
72, 67, 80, 85
82, 80, 76, 68
79, 75, 71, 85
83, 75, 75, 75
66, 64, 68, 66
66, 68, 63, 73
68, 70, 79, 72
63, 66, 69, 68
70, 68, 66, 68
76, 79, 69, 86
82, 68, 73, 66
65, 71, 72, 76
77, 62, 68, 72
68, 69, 76, 71
77, 79, 80, 73
72, 60, 63, 63
64, 77, 66, 68
83, 75, 67, 77
76, 72, 63, 72
82, 74, 70, 74
66, 70, 65, 71
64, 69, 72, 73
68, 70, 69, 67
70, 67, 62, 60
63, 54, 60, 77
67, 61, 71, 73
67, 70, 62, 60
65, 70, 67, 66
64, 74, 68, 70
68, 70, 65, 64
55, 59, 66, 65
60, 66, 73, 60
59, 63, 56, 66
73, 75, 72, 69
66, 62, 60, 73
64, 72, 73, 84
79, 64, 66, 77
71, 69, 66, 74
71, 73, 71, 77
74, 67, 75, 79
79, 55, 56, 69
75, 82, 60, 64
71, 71, 57, 69
58, 73, 67, 71
65, 70, 64, 52
66, 75, 76, 73
67, 61, 65, 75
57, 57, 66, 73
82, 75, 74, 61
73, 75, 66, 74
73, 75, 73, 83
74, 64, 79, 79
79, 82, 72, 78
78, 81, 72, 79
71, 67, 88, 85
81, 89, 84, 83
73, 81, 77, 66
66, 59, 83, 77
84, 74, 78, 83
71, 76, 65, 78
84, 75, 74, 80
60, 89, 71, 74
75, 67, 73, 70
77, 69, 70, 73
71, 59, 62, 75
90, 72, 72, 58
68, 67, 85, 93
73, 74, 77, 72
83, 72, 68, 61
62, 54, 65, 65
78, 66, 68, 74
68, 57, 63, 75
66, 84, 58, 66
71, 67, 66, 65
88, 68, 63, 69
67, 61, 77, 69
61, 69, 68, 56
65, 72, 68, 82
73, 89, 55, 64
69, 65, 65, 84
69, 67, 75, 83
87, 72, 69, 84
92, 57, 72, 91
69, 51, 64, 67
78, 75, 82, 70
80, 79, 85, 64
70, 77, 67, 63
74, 74, 81, 74
59, 77, 74, 68
69, 70, 62, 56
66, 80, 69, 95
63, 68, 65, 72
79, 68, 75, 69
80, 81, 75, 70
74, 74, 74, 74
*END

*EOF
